0.000345 0.000110 0.000204 0.000057 0.000012 0.000197 0.000166 0.000076 0.000099 0.000868 0.000020 0.000001 0.000001 0.000003 0.000024 0.000055 0.000392 0.000403 0.000799 0.000908 0.001858 0.000224 0.000009 0.000462 0.000633 0.000987 0.001304 0.001467 0.003742 0.001290 0.000090 0.000083 0.000002 0.000003 0.000002 0.000087 0.000011 0.000005 0.000006 0.000015 0.000013 0.000001 0.000002 0.000003 0.000004 0.000002 0.000000 0.000000 0.000001 0.000006 0.000002 0.000001 0.000001 0.000004 0.000007 0.000050 0.000168 0.001715 0.000012 0.000061 0.000106 0.000115 0.000359 0.000694 0.000726 0.000069 0.000139 0.000029 0.000010 0.000003 0.000002 0.000002 0.000011 0.000004 0.000016 0.000007 0.000011 0.000027 0.000011 0.000006 0.000005 0.000002 0.000001 0.000001 0.000002 0.000002 0.000003 0.000003 0.000002 0.000003 0.000002 0.000004 0.000002 0.000007 0.000005 0.000006 0.000007 0.000018 0.000006 0.000008 0.000015 0.000007 0.000008 0.000006 0.000008 0.000007 0.000037 0.000170 0.000259 0.000149 0.000165 0.000056 0.000012 0.000097 0.000010 0.000002 0.000001 0.000001 0.000001 0.000001 0.000002 0.000037 0.000062 0.000145 0.000043 0.000053 0.000013 0.000043 0.000074 0.000221 0.000163 0.000028 0.000385 0.000055 0.000017 0.000007 0.000023 0.000005 0.000009 0.000005 0.000009 0.000003 0.000002 0.000003 0.000001 0.000001 0.000001 0.000001 0.000001 0.000003 0.000008 0.000000 0.000009 0.000001 0.000003 0.000001 0.000001 0.000002 0.000001 0.000001 
0.025952 0.013270 0.011034 0.004180 0.001506 0.000743 0.001327 0.001383 0.001167 0.002597 0.000735 0.001867 0.003974 0.000607 0.002435 0.002657 0.003547 0.036931 0.004365 0.001240 0.003971 0.025384 0.080898 0.039466 0.023201 0.048987 0.024171 0.003839 0.000346 0.001554 0.005196 0.017149 0.030060 0.011731 0.036845 0.016828 0.018161 0.043288 0.029889 0.015978 0.015208 0.019095 0.007585 0.009668 0.026325 0.011530 0.011053 0.017639 0.011340 0.015478 0.001374 0.000803 0.000096 0.000088 0.000245 0.000014 0.000393 0.000045 0.000177 0.000165 0.000275 0.000794 0.000482 0.001108 0.000946 0.000289 0.000189 0.000283 0.000070 0.000128 0.000211 0.000753 0.000178 0.003734 0.002035 0.000855 0.000763 0.000051 0.000121 0.000130 0.000158 0.000102 0.000190 0.000085 0.000342 0.000073 0.001570 0.000095 0.000134 0.000102 0.123675 0.006563 0.001161 0.001646 0.000762 0.000788 0.000651 0.000185 0.000396 0.000541 0.000772 0.005037 0.000737 0.001056 0.000573 0.001286 0.000888 0.002481 0.000756 0.003803 0.004476 0.004630 0.028361 0.018833 0.091782 0.005191 0.000480 0.004355 0.003975 0.000648 0.000380 0.000248 0.000526 0.000794 0.000502 0.000438 0.000361 0.000119 0.000272 0.001343 0.002260 0.003980 0.006004 0.002229 0.007688 0.005278 0.006287 0.006267 0.001480 0.003078 0.002314 0.002633 0.002822 0.001851 0.000400 0.002058 0.000762 0.001303 0.001759 0.001709 0.001536 0.002302 0.003585 0.001392 0.002945 0.000097 0.002528 0.000553 0.002902 0.039947 0.033637 0.068751 0.084479 0.015886 0.007426 0.002355 0.000607 0.000268 0.000970 0.000412 0.001554 0.004216 0.003867 0.000229 0.002002 0.001604 0.002123 0.001550 0.003236 0.001794 0.003233 0.005185 0.004233 0.006813 0.006012 0.004209 0.008338 0.009245 0.002647 0.005548 0.008176 0.002687 0.000101 0.000186 0.000183 0.000442 0.000236 0.001468 0.002647 0.003061 0.002623 0.012449 0.028543 0.000443 0.002708 0.010980 0.036214 0.057387 0.034143 0.062450 0.015494 0.002398 0.000880 
0.000453 0.000749 0.002438 0.001531 0.001236 0.002652 0.002096 0.005876 0.000766 0.003164 0.001248 0.000649 0.002346 0.011152 0.003398 0.005559 0.003620 0.007021 0.000308 0.000101 0.000145 0.000047 0.000020 0.000238 0.001006 0.000064 0.001571 0.001070 0.002277 0.000682 0.000466 0.000164 0.001197 0.000440 0.002667 0.001939 0.003584 0.001232 0.003142 0.000174 0.000171 0.000109 0.000066 0.000208 0.001292 0.000461 0.000790 0.000024 0.000005 0.000026 0.000001 0.000004 0.000003 0.000001 0.000006 0.000092 0.000008 0.000009 0.000058 0.000025 0.000006 0.000010 0.000250 0.000115 0.000207 0.000243 0.000267 0.000080 0.000073 0.000088 0.000039 0.000128 0.000027 0.000222 0.001063 0.036777 0.007951 0.001101 0.001257 0.008661 0.000674 0.000037 0.000006 0.000034 0.000017 0.000021 0.001609 0.000017 0.000041 0.000004 0.000009 0.000012 0.000052 0.000004 0.000015 0.000002 0.000002 0.000004 0.000003 0.000004 0.000007 0.000010 0.000123 0.000004 0.000010 0.000023 0.000039 0.000029 0.000012 0.000061 0.000086 0.000803 0.000037 0.000106 0.000005 0.000010 0.000020 0.000129 0.000005 0.000002 0.000004 0.000057 0.013649 0.011251 0.001734 0.000500 0.000023 0.000090 0.000002 0.000024 0.000044 0.000013 0.000072 0.000024 0.000003 0.000002 0.000006 0.000089 0.000086 0.000034 0.000003 0.000002 0.000000 0.000000 0.000001 0.000002 0.000003 0.000001 0.000001 0.000004 0.000008 0.000006 0.000035 0.000040 0.000037 0.000033 0.000099 0.000143 0.000354 0.000263 0.001613 0.002398 0.000106 0.000020 0.000025 0.000003 0.000004 0.000034 0.000002 0.000001 0.000001 0.000001 0.000030 0.000005 0.000056 0.000024 0.000034 0.000007 0.001992 0.000079 0.000005 0.000009 0.000001 0.000002 0.000017 0.000062 0.000015 0.000009 0.000009 0.000002 
0.000096 0.000270 0.000401 0.000235 0.000750 0.004385 0.000675 0.004639 0.000014 0.001536 0.007324 0.002397 0.011405 0.020669 0.016835 0.014974 0.015757 0.004734 0.008259 0.019883 0.122558 0.108542 0.007993 0.058517 0.020565 0.047750 0.029269 0.056641 0.032650 0.017436 0.018242 0.011449 0.009962 0.011444 0.011644 0.003075 0.004604 0.003228 0.002434 0.005069 0.020891 0.003640 0.000146 0.000384 0.000891 0.000221 0.000033 0.000113 0.000795 0.000014 0.000002 0.000073 0.001377 0.000190 0.000056 0.000219 0.001072 0.045150 0.006372 0.005678 0.000044 0.009335 0.005666 0.002361 0.002893 0.000773 0.096742 0.171717 0.067736 0.002684 0.013430 0.069513 0.043916 0.009846 0.009321 0.021960 0.038255 0.004935 0.003088 0.002070 0.013311 0.024762 0.065803 0.017303 0.092845 0.187504 0.206724 0.193800 0.060316 0.007494 0.000360 0.004580 0.091421 0.131060 0.079338 0.043030 0.051260 0.045987 0.016059 0.017302 0.009727 0.008219 0.004006 0.007764 0.003080 0.004378 0.005557 0.002956 0.002883 0.003076 0.022982 0.008859 0.016530 0.013157 0.014200 0.026432 0.033040 0.076080 0.022510 0.069064 0.004068 0.029105 0.050399 0.185665 0.027455 0.109465 0.151281 0.068253 0.083473 0.056806 0.096535 0.041299 0.058460 0.089961 0.064323 0.048187 0.051466 0.074512 0.027826 0.019918 0.038985 0.018079 0.009931 0.008293 0.000083 0.002156 0.102190 0.558279 0.030644 0.039759 0.004101 0.000006 0.000041 0.001094 0.001031 0.000973 0.000136 0.000006 0.000006 0.000021 0.000093 0.000066 0.000404 0.017468 0.035351 
0.000114 0.000080 0.000018 0.000020 0.000019 0.000012 0.000029 0.000019 0.000020 0.000021 0.000141 0.000062 0.000008 0.000097 0.000080 0.000186 0.000217 0.001580 0.000086 0.000469 0.000360 0.000190 0.001244 0.004640 0.000459 0.000096 0.000091 0.000565 0.002325 0.003242 0.002963 0.002187 0.001012 0.000014 0.000021 0.000766 0.001543 0.001061 0.000705 0.000004 0.000026 0.005236 0.000187 0.000205 0.000249 0.000405 0.000596 0.001082 0.001836 0.003559 0.008849 0.006364 0.007241 0.000286 0.000033 0.000650 0.000241 0.000167 0.000027 0.000197 0.000091 0.000086 0.000031 0.000042 0.000008 0.000012 0.000025 0.000034 0.000025 0.000028 0.000043 0.000036 0.000134 0.000639 0.001151 0.003739 0.005782 0.005986 0.004760 0.003842 0.005080 0.004774 0.004339 0.006813 0.002686 0.009261 0.007617 0.006397 0.018676 0.007271 0.001104 0.000368 0.030727 0.070352 0.127670 0.094863 0.006099 0.004759 0.000416 0.002183 0.000889 0.001006 0.000210 0.000132 0.001268 0.000502 0.000235 0.000221 0.000228 0.000780 0.000510 0.000029 0.000024 0.000011 0.000026 0.000054 0.000221 0.000569 0.000025 0.000995 0.000586 0.000296 0.000019 0.000009 0.000526 0.000084 0.000278 0.000385 0.000025 0.000220 0.000372 0.000306 0.000105 0.000052 0.000071 0.001257 0.010174 0.018661 0.058210 0.001556 0.001334 0.001837 0.030660 0.038887 0.012438 0.014685 0.070652 0.017211 0.076211 0.033232 0.011248 0.050266 0.005237 0.022287 0.029296 0.030383 0.009645 0.011662 0.011580 0.020025 0.011559 0.002962 0.000561 0.000032 0.000008 0.000020 0.000044 0.000625 0.004729 0.125408 0.097254 0.119303 0.053933 0.104958 0.076862 0.168946 0.185100 0.000660 0.000118 0.000826 0.002785 0.011775 0.017436 0.006600 0.121237 0.005735 0.343158 0.020297 0.010311 0.004564 0.002037 0.063434 
0.000001 0.000001 0.000004 0.000001 0.000001 0.000002 0.000002 0.000002 0.000002 0.000002 0.000011 0.000021 0.000391 0.000391 0.000089 0.000130 0.000027 0.000006 0.000013 0.000019 0.000027 0.000019 0.000008 0.000119 0.000014 0.000076 0.000094 0.000053 0.000027 0.000014 0.000022 0.000007 0.000029 0.000015 0.000008 0.000010 0.000004 0.000002 0.000001 0.000004 0.000001 0.000019 0.000353 0.000154 0.000050 0.000243 0.000105 0.000069 0.000010 0.000021 0.000005 0.000005 0.000002 0.000002 0.000003 0.000001 0.000000 0.000001 0.000003 0.000003 0.000001 0.000014 0.000002 0.000003 0.000004 0.000002 0.000005 0.000014 0.000019 0.000006 0.000015 0.000008 0.000008 0.000003 0.000011 0.000015 0.000004 0.000019 0.000010 0.000049 0.000007 0.000003 0.000028 0.000005 0.000020 0.000003 0.000011 0.000015 0.000003 0.000026 0.000008 0.000002 0.000075 0.000032 0.000228 0.000111 0.000007 0.000003 0.000004 0.000005 0.000006 0.000001 0.000002 0.000001 0.000001 0.000002 0.000005 0.000002 0.000002 0.000003 0.000002 0.000002 0.000002 0.000002 0.000001 0.000002 0.000001 0.000000 0.000002 0.000004 0.000012 0.000012 0.000023 0.000089 0.000000 0.000029 0.000005 0.000006 0.000004 0.000084 0.000355 0.000363 0.000144 0.000021 0.000016 0.000004 0.000019 0.000406 0.000018 0.000134 0.000019 0.000015 0.000000 0.000012 0.000007 0.000023 0.000004 0.000003 0.000000 0.000002 0.000008 0.000021 0.000011 0.000007 0.000001 0.000009 0.000008 0.000008 0.000004 0.000003 0.000037 0.000027 0.000016 0.000013 0.000027 0.000022 0.000035 0.000001 0.000002 0.000000 0.000000 0.000044 0.000297 0.000541 0.000006 0.000011 0.000014 0.000010 
0.000055 0.000033 0.000000 0.000000 0.000000 0.000000 0.000000 0.000000 0.000000 0.000000 0.000000 0.000000 0.000000 0.000045 0.000017 0.000012 0.000005 0.000001 0.000130 0.001455 0.000008 0.000004 0.000077 0.000038 0.000023 0.000003 0.000000 0.000000 0.000000 0.000000 0.000001 0.000001 0.000001 0.000003 0.000001 0.000004 0.000002 0.000004 0.000003 0.000016 0.000004 0.000010 0.000001 0.000000 0.000000 0.000000 0.000000 0.000000 0.000001 0.000000 0.000000 0.000000 0.000000 0.000002 0.000005 0.000002 0.000000 0.000000 0.000000 0.000001 0.000000 0.000024 0.000372 0.000204 0.000192 0.000119 0.000042 0.000038 0.000044 0.000000 0.000000 0.000000 0.000000 0.000000 0.000000 0.000000 0.000039 0.000004 0.000013 0.000061 0.000442 0.000241 0.000337 0.000391 0.000852 0.001171 0.000486 0.000598 0.000828 0.000484 0.000901 0.000000 0.000000 0.000000 0.000000 0.000000 0.000000 0.000000 0.000039 0.000002 0.000000 0.000000 0.000000 0.000000 0.000000 0.000000 0.000000 0.000002 0.000070 0.000006 0.000002 0.000000 0.000000 0.000000 0.000000 0.000000 0.000000 0.000000 0.000000 0.000000 0.000000 0.000000 0.000000 0.000000 0.000001 0.000000 0.000000 0.000000 0.000000 0.000001 0.000149 0.000287 0.000297 0.000210 0.000353 0.000065 0.000164 0.000189 0.000253 0.000293 0.000094 0.000013 0.000001 0.000000 0.000000 0.000000 0.000000 0.000000 0.000000 0.000000 0.000003 0.000010 0.000005 0.000005 0.000000 0.000001 0.000005 0.000011 0.000005 0.000000 0.000000 0.000000 0.000000 0.000000 0.000000 0.000000 0.000000 0.000000 0.000000 0.000000 0.000000 0.000000 
0.000001 0.000009 0.000001 0.000002 0.000006 0.000012 0.000014 0.000003 0.000014 0.000008 0.000002 0.000001 0.000003 0.000000 0.000000 0.000001 0.000001 0.000007 0.000001 0.000000 0.000001 0.000005 0.000003 0.000001 0.000002 0.000004 0.000000 0.000001 0.000000 0.000001 0.000000 0.000000 0.000000 0.000001 0.000002 0.000003 0.000003 0.000002 0.000003 0.000004 0.000004 0.000005 0.000003 0.000003 0.000005 0.000003 0.000005 0.000002 0.000004 0.000007 0.000019 0.000027 0.000034 0.000004 0.000002 0.000000 0.000000 0.000000 0.000000 0.000000 0.000000 0.000000 0.000001 0.000000 0.000000 0.000000 0.000000 0.000000 0.000000 0.000009 0.000000 0.000001 0.000000 0.000000 0.000000 0.000000 0.000000 0.000000 0.000000 0.000000 0.000000 0.000000 0.000001 0.000002 0.000003 0.000001 0.000000 0.000000 0.000000 0.000000 0.000000 0.000000 0.000000 0.000000 0.000000 0.000000 0.000002 0.000000 0.000006 0.000000 0.000000 0.000001 0.000003 0.000000 0.000000 0.000000 0.000001 0.000000 0.000002 0.000005 0.000002 0.000003 0.000006 0.000008 0.000000 0.000001 0.000000 0.000000 0.000001 0.000001 0.000000 0.000000 0.000000 0.000000 0.000000 0.000000 0.000000 0.000000 0.000001 0.000000 0.000000 0.000001 0.000001 0.000000 0.000001 0.000001 0.000002 0.000000 0.000000 0.000000 0.000003 0.000004 0.000006 0.000003 0.000001 0.000019 0.000001 0.000000 0.000000 0.000000 0.000002 0.000001 0.000000 0.000000 0.000000 0.000000 0.000000 0.000001 0.000010 0.000000 0.000001 0.000000 0.000000 0.000000 0.000000 0.000000 0.000000 0.000001 0.000000 0.000000 0.000000 0.000000 0.000000 0.000000 0.000000 0.000000 0.000000 0.000000 0.000000 0.000000 0.000000 0.000000 0.000005 0.000001 
0.000430 0.000048 0.000033 0.000001 0.000002 0.000016 0.000004 0.000033 0.000048 0.000008 0.000002 0.000005 0.000000 0.000000 0.000001 0.000001 0.000001 0.000001 0.000003 0.000009 0.000010 0.000010 0.000010 0.000017 0.000046 0.000077 0.000095 0.000190 0.000278 0.000095 0.000080 0.000410 0.000470 0.000250 0.001425 0.000538 0.000023 0.000003 0.000001 0.000000 0.000003 0.000002 0.000001 0.000001 0.000003 0.000001 0.000001 0.000001 0.000000 0.000000 0.000001 0.000000 0.000001 0.000000 0.000001 0.000001 0.000000 0.000001 0.000000 0.000000 0.000000 0.000000 0.000000 0.000000 0.000000 0.000001 0.000000 0.000000 0.000000 0.000000 0.000000 0.000000 0.000001 0.000000 0.000000 0.000001 0.000002 0.000010 0.000021 0.000012 0.000001 0.000001 0.000013 0.000001 0.000002 0.000001 0.000000 0.000000 0.000000 0.000000 0.000001 0.000001 0.000001 0.000002 0.000011 0.000011 0.000019 0.000010 0.000002 0.000001 0.000001 0.000000 0.000001 0.000000 0.000098 0.000040 0.000003 0.000078 0.000005 0.000199 0.000064 0.000065 0.000012 0.000005 0.000012 0.000001 0.000005 0.000004 0.000002 0.000004 0.000057 0.000005 0.000003 0.000002 0.000001 0.000024 0.000551 0.000059 0.000010 0.000027 0.000002 0.000001 0.000001 0.000000 0.000000 0.000000 0.000000 0.000000 0.000000 0.000001 0.000000 0.000000 0.000001 0.000001 0.000002 0.000007 0.000003 0.000002 0.000002 0.000009 0.000015 0.000005 0.000004 0.000002 0.000003 0.000002 0.000001 0.000006 0.000051 0.000001 0.000002 0.000003 0.000001 0.000000 0.000001 0.000000 0.000001 0.000001 0.000001 0.000000 0.000001 0.000018 0.000009 0.000016 0.000013 0.000009 0.000001 0.000000 0.000001 0.000000 0.000000 0.000001 0.000000 0.000001 0.000000 0.000001 0.000042 0.000649 
0.000011 0.000001 0.000001 0.000000 0.000000 0.000004 0.000012 0.000002 0.000002 0.000056 0.000005 0.000026 0.000001 0.000000 0.000000 0.003353 0.000012 0.000002 0.000000 0.000000 0.000000 0.000017 0.000000 0.000003 0.000011 0.000001 0.000016 0.000002 0.000008 0.000000 0.000000 0.000000 0.000012 0.001885 0.000070 0.000000 0.000000 0.000000 0.000000 0.000000 0.000011 0.000005 0.001412 0.000000 0.000000 0.000000 0.000001 0.000000 0.000006 0.000022 0.000114 0.000248 0.001163 0.000379 0.000495 0.002797 0.002394 0.000515 0.001421 0.001057 0.001114 0.002074 0.001803 0.004535 0.001638 0.002880 0.002097 0.001303 0.003756 0.002154 0.001396 0.000076 0.001268 0.000688 0.000051 0.000279 0.000253 0.000062 0.000071 0.000055 0.000153 0.000042 0.000471 0.000324 0.000203 0.000201 0.000389 0.000086 0.000544 0.000783 0.000246 0.000670 0.001310 0.000038 0.000005 0.000001 0.000020 0.000012 0.000008 0.000190 0.000796 0.000007 0.000129 0.000063 0.000074 0.000002 0.000073 0.000061 0.000132 0.000361 0.000152 0.000687 0.000142 0.000194 0.000039 0.000103 0.000069 0.000036 0.000028 0.000321 0.000098 0.000073 0.000191 0.000145 0.000381 0.000222 0.000783 0.001078 0.001643 0.001862 0.016843 0.024746 0.008932 0.001848 0.002662 0.001092 0.002210 0.005848 0.001643 0.001920 0.005678 0.004004 0.000945 0.000002 0.000001 0.000002 0.000001 0.000002 0.000065 0.000971 0.000621 0.000021 0.000017 0.000003 0.000253 0.000061 0.000027 0.000073 0.000311 0.000197 0.000274 0.000166 0.000295 0.000055 0.000057 0.000051 0.000152 0.000137 0.000260 0.000103 0.000243 0.000101 0.000321 0.000107 0.000224 0.000126 0.000175 0.000376 0.000548 0.002119 0.001663 0.001794 0.002945 0.007206 0.009140 0.003896 0.003142 0.009165 0.009594 0.004475 0.003945 
0.000008 0.000007 0.000001 0.000016 0.000304 0.007064 0.004960 0.000980 0.000582 0.000333 0.002939 0.003699 0.000742 0.003166 0.000636 0.001790 0.008256 0.005836 0.001613 0.002584 0.006726 0.002900 0.001159 0.004568 0.002386 0.001190 0.001230 0.001058 0.000277 0.000366 0.000736 0.001408 0.001040 0.000288 0.000208 0.000637 0.000232 0.000404 0.000245 0.000278 0.000168 0.000039 0.000126 0.000027 0.000010 0.000027 0.000011 0.000047 0.000071 0.000059 0.000113 0.000023 0.000005 0.000025 0.000255 0.000138 0.000223 0.001169 0.000581 0.001336 0.001543 0.000059 0.001135 0.001964 0.000467 0.000119 0.000171 0.000110 0.000144 0.000203 0.000084 0.000070 0.000045 0.000010 0.000145 0.000112 0.000113 0.000485 0.000110 0.000115 0.000093 0.000244 0.000075 0.000114 0.000090 0.000181 0.000031 0.000047 0.000014 0.000025 0.000022 0.000046 0.000058 0.000119 0.000251 0.000507 0.000139 0.000399 0.000465 0.000336 0.000504 0.000747 0.000268 0.000499 0.000195 0.000009 0.000014 0.000461 0.002418 0.001402 0.000060 0.000013 0.000070 0.000049 0.000455 0.000159 0.000232 0.000060 0.000043 0.000009 0.000001 0.000003 0.000005 0.000002 0.000005 0.000001 0.000005 0.000006 0.000012 0.000010 0.000007 0.000016 0.000004 0.000001 0.000001 0.000001 0.000001 0.000001 0.000038 0.000233 0.000023 0.000064 0.000146 0.001589 0.000118 0.000548 0.000302 0.000169 0.000245 0.000267 0.000356 0.000034 0.000123 0.000214 0.000110 0.000824 0.000427 0.000931 0.000535 0.000654 0.000286 0.000453 0.000186 0.000112 0.000276 0.000314 0.000890 0.000206 0.000008 0.000105 0.000070 0.000130 0.000318 0.000640 0.000204 0.000199 0.000225 0.000260 0.000294 0.000294 0.000810 0.000353 0.000310 0.000542 0.000212 0.000069 0.000083 
0.000002 0.000005 0.000007 0.000003 0.000001 0.000002 0.000001 0.000002 0.000001 0.000000 0.000001 0.000006 0.000018 0.000013 0.000002 0.000000 0.000001 0.000003 0.000001 0.000014 0.000007 0.000000 0.000003 0.000003 0.000000 0.000000 0.000000 0.000000 0.000000 0.000000 0.000000 0.000000 0.000002 0.000019 0.000000 0.000000 0.000001 0.000001 0.000000 0.000000 0.000000 0.000000 0.000001 0.000001 0.000001 0.000002 0.000039 0.000000 0.000000 0.000000 0.000000 0.000000 0.000000 0.000000 0.000000 0.000000 0.000000 0.000001 0.000000 0.000000 0.000000 0.000000 0.000000 0.000000 0.000000 0.000000 0.000000 0.000000 0.000000 0.000000 0.000000 0.000000 0.000000 0.000000 0.000000 0.000000 0.000000 0.000001 0.000000 0.000000 0.000000 0.000000 0.000000 0.000001 0.000000 0.000000 0.000000 0.000000 0.000000 0.000000 0.000000 0.000000 0.000000 0.000000 0.000000 0.000000 0.000000 0.000000 0.000000 0.000000 0.000000 0.000000 0.000000 0.000000 0.000000 0.000000 0.000000 0.000000 0.000000 0.000004 0.000001 0.000000 0.000000 0.000000 0.000000 0.000001 0.000001 0.000000 0.000000 0.000000 0.000000 0.000000 0.000000 0.000000 0.000000 0.000000 0.000000 0.000000 0.000000 0.000001 0.000002 0.000002 0.000005 0.000002 0.000006 0.000017 0.000008 0.000003 0.000000 0.000000 0.000000 0.000000 0.000000 0.000000 0.000000 0.000000 0.000000 0.000000 0.000000 0.000000 0.000000 0.000000 0.000000 0.000000 0.000000 0.000000 0.000017 0.000013 0.000002 0.000000 0.000000 0.000000 0.000000 0.000000 0.000000 0.000000 0.000000 0.000000 0.000000 0.000000 0.000000 0.000000 0.000000 0.000000 0.000000 0.000000 0.000000 0.000000 0.000000 0.000000 0.000000 0.000000 0.000000 0.000000 0.000000 0.000000 0.000000 0.000000 0.000000 0.000000 0.000000 
0.000000 0.000000 0.000000 0.000001 0.000004 0.000001 0.000000 0.000000 0.000000 0.000001 0.000002 0.000003 0.000003 0.000009 0.000005 0.000012 0.000002 0.000007 0.000046 0.000005 0.000000 0.000000 0.000000 0.000000 0.000000 0.000000 0.000000 0.000000 0.000000 0.000000 0.000003 0.000001 0.000003 0.000007 0.000011 0.000007 0.000006 0.000011 0.000000 0.000001 0.000000 0.000000 0.000000 0.000001 0.000004 0.000000 0.000000 0.000000 0.000000 0.000000 0.000001 0.000004 0.000005 0.000000 0.000000 0.000000 0.000000 0.000001 0.000005 0.000011 0.000000 0.000000 0.000000 0.000000 0.000000 0.000000 0.000000 0.000008 0.000001 0.000000 0.000000 0.000000 0.000001 0.000003 0.000005 0.000000 0.000001 0.000002 0.000001 0.000004 0.000000 0.000003 0.000000 0.000001 0.000000 0.000000 0.000000 0.000000 0.000000 0.000000 0.000000 0.000000 0.000000 0.000000 0.000000 0.000000 0.000000 0.000000 0.000000 0.000000 0.000000 0.000000 0.000000 0.000000 0.000000 0.000000 0.000000 0.000002 0.000002 0.000011 0.000004 0.000014 0.000004 0.000016 0.000004 0.000013 0.000007 0.000004 0.000002 0.000003 0.000003 0.000002 0.000001 0.000002 0.000000 0.000000 0.000000 0.000000 0.000011 0.000006 0.000000 0.000000 0.000001 0.000000 0.000000 0.000000 0.000000 0.000000 0.000000 0.000000 0.000000 0.000000 0.000000 0.000000 0.000000 0.000000 0.000000 0.000000 0.000000 0.000000 0.000000 0.000000 0.000001 0.000024 0.000005 0.000000 0.000003 0.000001 0.000000 0.000000 0.000000 0.000000 
0.001777 0.000006 0.000000 0.000000 0.000000 0.000000 0.000000 0.000000 0.000000 0.000000 0.000000 0.000000 0.000000 0.000000 0.000000 0.000000 0.000000 0.000000 0.000000 0.000000 0.000000 0.000000 0.000000 0.000000 0.000000 0.000000 0.000000 0.000000 0.000000 0.000000 0.000000 0.000000 0.000000 0.000000 0.000001 0.000001 0.000001 0.000009 0.000011 0.000001 0.000007 0.000019 0.000002 0.000046 0.000128 0.000032 0.000004 0.000000 0.000000 0.000001 0.000001 0.000000 0.000003 0.000001 0.000003 0.000003 0.000026 0.000046 0.000077 0.000035 0.000188 0.000157 0.000204 0.000060 0.000426 0.000117 0.000000 0.000000 0.000000 0.000001 0.000003 0.000002 0.000019 0.000001 0.000001 0.000004 0.000005 0.000003 0.000003 0.000001 0.000004 0.000001 0.000004 0.000003 0.000000 0.000000 0.000000 0.000000 0.000000 0.000000 0.000000 0.000000 0.000000 0.000002 0.000144 0.000038 0.000002 0.000002 0.000021 0.000003 0.000006 0.000001 0.000000 0.000000 0.000000 0.000000 0.000000 0.000000 0.000000 0.000001 0.000000 0.000000 0.000000 0.000000 0.000000 0.000001 0.000000 0.000000 0.000000 0.000000 0.000000 0.000000 0.000001 0.000000 0.000000 0.000000 0.000000 0.000000 0.000000 0.000000 0.000000 0.000000 0.000000 0.000000 0.000001 0.000004 0.000003 0.000000 0.000002 0.000014 0.000013 0.000028 0.000000 0.000025 0.000022 0.000000 0.000000 0.000000 0.000000 0.000000 0.000000 0.000000 0.000000 0.000000 0.000000 0.000000 0.000000 0.000000 0.000000 0.000001 0.000000 0.000000 0.000000 0.000000 0.000000 0.000000 
0.000006 0.000012 0.000001 0.000001 0.000002 0.000004 0.000003 0.000003 0.000002 0.000001 0.000123 0.000064 0.000003 0.000001 0.000003 0.000002 0.000003 0.000002 0.000006 0.000003 0.000004 0.000002 0.000004 0.000001 0.000002 0.000001 0.000004 0.000001 0.000009 0.000014 0.000006 0.000006 0.000007 0.000002 0.000012 0.000016 0.000005 0.000003 0.000000 0.000004 0.000009 0.000005 0.000000 0.000004 0.000003 0.000013 0.000009 0.000001 0.000008 0.000000 0.000008 0.000003 0.000002 0.000004 0.000000 0.000001 0.000006 0.000022 0.000147 0.000246 0.000148 0.000864 0.000434 0.000504 0.000341 0.000651 0.000546 0.000961 0.000358 0.000367 0.000142 0.000349 0.000322 0.000165 0.000382 0.000001 0.000006 0.000001 0.000001 0.000000 0.000001 0.000001 0.000000 0.000000 0.000000 0.000000 0.000000 0.000000 0.000000 0.000005 0.000002 0.000003 0.000001 0.000002 0.000011 0.000009 0.000081 0.000010 0.000011 0.000008 0.000002 0.000021 0.000019 0.000012 0.000004 0.000003 0.000001 0.000003 0.000007 0.000004 0.000003 0.000007 0.000007 0.000006 0.000013 0.000006 0.000001 0.000002 0.000002 0.000004 0.000002 0.000003 0.000001 0.000001 0.000005 0.000017 0.000039 0.000061 0.000078 0.000081 0.000017 0.000002 0.000001 0.000000 0.000001 0.000001 0.000001 0.000001 0.000003 0.000001 0.000001 0.000000 0.000000 0.000002 0.000003 0.000000 0.000000 0.000000 0.000000 0.000000 0.000000 0.000000 0.000000 0.000000 0.000000 0.000000 0.000000 0.000000 0.000001 0.000002 0.000002 0.000006 0.000052 0.000036 0.000333 0.000121 0.000067 0.000177 0.000237 0.000165 0.000245 0.000000 0.000001 0.000000 0.000000 0.000000 0.000000 0.000000 0.000001 0.000000 
0.000025 0.000021 0.000018 0.000010 0.000026 0.000034 0.000199 0.000042 0.000034 0.000017 0.000003 0.000000 0.000000 0.000005 0.000226 0.000080 0.000000 0.000003 0.000022 0.000052 0.000054 0.000525 0.000206 0.000953 0.000238 0.000515 0.000387 0.001312 0.000722 0.000007 0.000001 0.000023 0.000066 0.000003 0.000004 0.000154 0.000054 0.000076 0.000051 0.001277 0.000422 0.000006 0.000066 0.000327 0.001722 0.000448 0.000766 0.000005 0.000000 0.000000 0.000000 0.000000 0.000000 0.000000 0.000000 0.000002 0.000000 0.000000 0.000000 0.000000 0.000000 0.000001 0.000002 0.000002 0.000007 0.000022 0.000265 0.000067 0.000499 0.000902 0.004620 0.004586 0.001379 0.001868 0.003673 0.003539 0.007462 0.004895 0.007160 0.004840 0.017511 0.008503 0.014446 0.001121 0.000003 0.000019 0.000004 0.000001 0.000002 0.000006 0.000468 0.000308 0.000022 0.000002 0.000001 0.000000 0.000001 0.000000 0.000000 0.000000 0.000000 0.000000 0.000001 0.000023 0.000006 0.000010 0.000007 0.000013 0.000047 0.000074 0.000015 0.000002 0.000002 0.000000 0.000002 0.000000 0.000000 0.000001 0.000003 0.000003 0.000008 0.000002 0.000003 0.000001 0.000024 0.000004 0.000006 0.000003 0.000008 0.000005 0.000022 0.000013 0.000279 0.000018 0.000010 0.000002 0.000002 0.000306 0.000107 0.000006 0.000000 0.000002 0.000001 0.000000 0.000001 0.000000 0.000000 0.000000 0.000001 0.000003 0.000001 0.000001 0.000003 0.000000 0.000002 0.000002 0.000031 0.000104 0.000068 0.000019 0.000084 0.000058 0.000037 0.000006 0.000001 0.000005 0.000191 0.000058 0.000055 0.000200 0.000016 0.000058 0.000056 0.000416 0.000409 0.000326 0.000203 
0.000002 0.000002 0.000002 0.000002 0.000001 0.000003 0.000003 0.000007 0.000002 0.000000 0.000000 0.000001 0.000002 0.000003 0.000011 0.000024 0.000018 0.000009 0.000036 0.000023 0.000012 0.000013 0.000011 0.000015 0.000024 0.000015 0.000001 0.000001 0.000001 0.000004 0.000005 0.000008 0.000010 0.000013 0.000005 0.000003 0.000010 0.000003 0.000001 0.000000 0.000000 0.000000 0.000000 0.000000 0.000000 0.000000 0.000000 0.000001 0.000001 0.000000 0.000000 0.000002 0.000002 0.000001 0.000000 0.000001 0.000000 0.000000 0.000000 0.000000 0.000001 0.000005 0.000003 0.000015 0.000012 0.000020 0.000040 0.000042 0.000024 0.000039 0.000020 0.000004 0.000003 0.000000 0.000001 0.000001 0.000000 0.000002 0.000001 0.000001 0.000001 0.000001 0.000001 0.000002 0.000000 0.000001 0.000001 0.000001 0.000001 0.000000 0.000010 0.000005 0.000000 0.000000 0.000195 0.000001 0.000000 0.000000 0.000000 0.000000 0.000005 0.000001 0.000003 0.000000 0.000000 0.000002 0.000000 0.000000 0.000000 0.000000 0.000000 0.000000 0.000000 0.000000 0.000000 0.000000 0.000000 0.000000 0.000000 0.000001 0.000000 0.000001 0.000001 0.000001 0.000003 0.000007 0.000008 0.000005 0.000005 0.000000 0.000001 0.000001 0.000001 0.000000 0.000002 0.000401 0.000116 0.000045 0.000033 0.000009 0.000002 0.000001 0.000000 0.000001 0.000000 0.000000 0.000000 0.000000 0.000000 0.000001 0.000000 0.000001 0.000003 0.000001 0.000002 0.000001 0.000393 0.000006 0.000003 0.000023 0.000000 0.000007 0.000356 0.000041 0.000252 0.000036 0.000041 0.000005 0.000000 0.000045 0.000001 0.000000 0.000000 0.000000 
0.000238 0.000037 0.000015 0.000007 0.000033 0.000021 0.000002 0.000003 0.000003 0.000013 0.000024 0.000041 0.000043 0.000019 0.000036 0.000064 0.000148 0.000059 0.000129 0.000077 0.000128 0.000018 0.000549 0.000380 0.000386 0.000138 0.000105 0.000143 0.000162 0.000226 0.000104 0.000162 0.000146 0.000012 0.000170 0.000059 0.000141 0.000141 0.000031 0.000066 0.000014 0.000009 0.000003 0.000002 0.000000 0.000013 0.000041 0.000039 0.000011 0.000003 0.000003 0.000017 0.000014 0.000055 0.000133 0.000121 0.000111 0.000144 0.000089 0.000172 0.000063 0.000075 0.000044 0.000049 0.000027 0.000059 0.000060 0.000063 0.000242 0.000105 0.000283 0.000109 0.000120 0.000035 0.000012 0.000022 0.000007 0.000001 0.000004 0.000063 0.000009 0.000087 0.000015 0.000007 0.000076 0.000081 0.000173 0.000065 0.000049 0.000068 0.000091 0.000032 0.000053 0.000055 0.000165 0.000006 0.000006 0.000014 0.000078 0.000007 0.000003 0.000002 0.000001 0.000002 0.000002 0.000001 0.000003 0.000003 0.000001 0.000003 0.000004 0.000002 0.000041 0.000053 0.000150 0.000167 0.000325 0.000240 0.000170 0.000177 0.000037 0.000014 0.000029 0.000016 0.000049 0.000007 0.000021 0.000110 0.000206 0.000033 0.000027 0.000051 0.000068 0.000093 0.000082 0.000051 0.000144 0.000158 0.000266 0.000375 0.000290 0.000029 0.000000 0.000000 0.000000 0.000000 0.000000 0.000000 0.000000 0.000000 0.000000 0.000000 0.000001 0.000003 0.000001 0.000003 0.000005 0.000002 0.000012 0.000019 0.000030 0.000037 0.000021 0.000040 0.000035 0.000116 0.000061 0.000145 0.000098 0.000115 0.000005 0.000017 0.000016 0.000006 0.000001 0.000004 0.000004 0.000000 0.000000 0.000000 
0.000314 0.000033 0.000010 0.000006 0.000000 0.000006 0.000006 0.000017 0.000319 0.000513 0.000046 0.000127 0.000287 0.000146 0.000001 0.000005 0.000006 0.000014 0.000014 0.000019 0.000008 0.000011 0.000016 0.000010 0.000021 0.000012 0.000011 0.000009 0.000009 0.000005 0.000010 0.000009 0.000026 0.000004 0.000016 0.000012 0.000024 0.000232 0.000196 0.000109 0.000115 0.000038 0.000076 0.000033 0.000040 0.000095 0.000263 0.000147 0.000293 0.000276 0.000248 0.000264 0.000492 0.000692 0.000414 0.000588 0.001150 0.000094 0.000164 0.000275 0.000012 0.000016 0.000137 0.000116 0.000067 0.000026 0.000030 0.000150 0.000072 0.000009 0.000006 0.000005 0.000006 0.000012 0.000031 0.000066 0.000010 0.000021 0.000064 0.000070 0.000133 0.000243 0.000940 0.000590 0.000883 0.002012 0.001352 0.000548 0.001810 0.000485 0.000573 0.000551 0.000610 0.000106 0.000019 0.000070 0.000063 0.000042 0.000115 0.000140 0.000130 0.000022 0.000062 0.000034 0.000174 0.000027 0.000067 0.000055 0.000106 0.000029 0.000142 0.000426 0.002072 0.000369 0.000629 0.001066 0.000230 0.001442 0.000381 0.000309 0.000109 0.000474 0.000026 0.000413 0.000183 0.000038 0.000009 0.000022 0.000024 0.000009 0.000006 0.000005 0.000024 0.000022 0.000019 0.000018 0.000031 0.000074 0.000095 0.000305 0.000283 0.000606 0.000194 0.000064 0.000032 0.000069 0.000192 0.000074 0.000197 0.000120 0.000186 0.000815 0.000164 0.000185 0.000702 0.000488 0.000281 0.000162 0.000645 0.000373 0.000230 0.000088 0.000552 0.000073 0.000053 0.000041 0.000045 0.000023 0.000037 0.000024 0.000008 0.000041 0.000006 0.000037 0.000015 0.000019 0.000012 
0.000003 0.000001 0.000001 0.000000 0.000000 0.000001 0.000000 0.000000 0.000001 0.000006 0.000001 0.000000 0.000000 0.000000 0.000000 0.000000 0.000000 0.000000 0.000020 0.000001 0.000011 0.000000 0.000000 0.000000 0.000002 0.000000 0.000000 0.000000 0.000001 0.000000 0.000006 0.000004 0.000004 0.000017 0.000036 0.000075 0.000194 0.000004 0.000000 0.000138 0.000017 0.000002 0.000027 0.000049 0.000193 0.000436 0.000129 0.000844 0.000718 0.000198 0.000690 0.001065 0.002008 0.000853 0.001351 0.000652 0.000439 0.000898 0.000164 0.000177 0.000038 0.000015 0.000009 0.000019 0.000013 0.000001 0.000003 0.000001 0.000227 0.000021 0.000143 0.000072 0.000035 0.000129 0.000225 0.000057 0.000036 0.000036 0.000202 0.000040 0.000134 0.000189 0.000049 0.000027 0.000008 0.000026 0.000010 0.000001 0.000011 0.000004 0.000001 0.000055 0.000014 0.000001 0.000046 0.000005 0.000011 0.000006 0.000003 0.000032 0.000047 0.000015 0.000032 0.000026 0.000040 0.000021 0.000024 0.000067 0.000035 0.000112 0.000047 0.000000 0.000000 0.000001 0.000003 0.000000 0.000005 0.000023 0.000072 0.000018 0.000282 0.000089 0.000031 0.000050 0.000061 0.000017 0.000008 0.000015 0.000003 0.000009 0.000009 0.000012 0.000010 0.000000 0.000000 0.000004 0.000052 0.000074 0.000025 0.000003 0.000015 0.000001 0.000010 0.000019 0.000016 0.000012 0.000021 0.000014 0.000023 0.000009 0.000000 0.000008 0.000458 0.000674 0.000026 0.000029 0.002491 0.000025 0.000302 0.000104 0.005716 0.000346 0.000003 0.000025 0.000272 0.000163 0.000103 0.000036 0.000003 0.000019 0.000233 0.000651 0.001572 0.000655 0.000617 0.001049 0.000092 0.000044 0.000228 0.000120 0.000285 0.000369 0.000317 0.000127 0.000269 0.000037 0.000080 0.000316 0.000368 0.000012 0.000011 0.000027 0.000257 0.000056 0.000008 0.000078 0.000009 0.000041 0.000033 0.000031 0.000186 0.000003 0.000031 0.000007 0.000008 0.000012 0.000066 0.000008 0.000001 0.000015 0.000219 0.000026 0.000330 0.000161 0.000056 0.000095 
0.000004 0.000129 0.000043 0.000000 0.000000 0.000000 0.000000 0.000915 0.000014 0.000000 0.000001 0.000001 0.000003 0.000001 0.000002 0.000001 0.000003 0.000002 0.000001 0.000001 0.000093 0.001827 0.000165 0.000026 0.000101 0.000019 0.000005 0.000004 0.000003 0.000001 0.000003 0.000002 0.000002 0.000001 0.000002 0.000001 0.000002 0.000001 0.000002 0.000003 0.000003 0.000002 0.000002 0.000009 0.000002 0.000003 0.000007 0.000027 0.000005 0.000048 0.000015 0.000007 0.000007 0.000007 0.000100 0.000018 0.000020 0.000007 0.000003 0.000009 0.000002 0.000001 0.000001 0.000001 0.000000 0.000006 0.000002 0.000001 0.000001 0.000003 0.000000 0.000005 0.000088 0.000006 0.000001 0.000000 0.000001 0.000000 0.000000 0.000001 0.000002 0.000001 0.000001 0.000001 0.000002 0.000001 0.000001 0.000003 0.000001 0.000001 0.000005 0.000025 0.000006 0.000002 0.000011 0.000007 0.000001 0.000014 0.000017 0.000019 0.000022 0.000013 0.000007 0.000005 0.000004 0.000002 0.000006 0.000035 0.000012 0.000007 0.000004 0.000006 0.000001 0.000007 0.000017 0.000006 0.000017 0.000003 0.000034 0.000045 0.000000 0.000243 0.000109 0.000023 0.000016 0.000013 0.000027 0.000015 0.000025 0.000235 0.000005 0.000001 0.000042 0.000016 0.000008 0.000005 0.000043 0.000011 0.000017 0.000012 0.000002 0.000017 0.000006 0.000006 0.000002 0.000006 0.000003 0.000001 0.000001 0.000000 0.000000 0.000000 0.000000 0.000001 0.000000 0.000001 0.000001 0.000001 0.000001 0.000003 0.000027 0.000014 0.000006 0.000004 0.000003 0.000002 0.000006 0.000017 0.000007 0.000038 0.000041 
0.000345 0.000541 0.000283 0.000540 0.000136 0.000288 0.000212 0.000080 0.000141 0.000075 0.000146 0.000044 0.000043 0.000045 0.000081 0.000039 0.000691 0.000173 0.000090 0.000507 0.000227 0.000225 0.000186 0.000234 0.000530 0.001174 0.004622 0.002344 0.001965 0.001174 0.001276 0.001023 0.001132 0.000483 0.000994 0.001612 0.000969 0.001959 0.005540 0.001345 0.002418 0.001043 0.002017 0.001069 0.000375 0.000325 0.000504 0.000494 0.001641 0.001544 0.000523 0.000156 0.000412 0.000506 0.000463 0.000926 0.001761 0.001555 0.001514 0.016358 0.000609 0.000514 0.000264 0.000122 0.000338 0.000728 0.000681 0.000947 0.000549 0.002268 0.001073 0.001027 0.002470 0.001894 0.000918 0.001750 0.003528 0.001539 0.001475 0.001625 0.002163 0.001688 0.001847 0.001289 0.001642 0.001101 0.003555 0.003428 0.005667 0.008901 0.005420 0.003977 0.006739 0.004053 0.002131 0.000953 0.001361 0.002247 0.001081 0.003207 0.002786 0.001383 0.000205 0.000914 0.011699 0.002404 0.000372 0.026494 0.013519 0.009011 0.014061 0.031873 0.006465 0.015904 0.019550 0.013799 0.004255 0.000228 0.001677 0.001052 0.001620 0.000433 0.000247 0.000479 0.001100 0.002348 0.003968 0.001956 0.002468 0.002661 0.004770 0.001878 0.003907 0.002668 0.001434 0.003747 0.003314 0.002071 0.003254 0.007683 0.004394 0.001480 0.000308 0.000638 0.000305 0.000263 0.000275 0.000172 0.000618 0.001252 0.001531 0.002804 0.001884 0.001421 0.001587 0.000743 0.002331 0.001198 0.000744 0.001103 0.002308 0.000973 0.000945 0.000822 0.005265 0.006231 0.002958 0.001232 0.002670 0.004136 0.001438 0.000478 0.002893 0.003180 0.004900 0.009034 0.005305 0.005323 0.002654 0.002122 0.004327 0.003940 0.000627 
0.000010 0.000014 0.000000 0.000000 0.000000 0.000000 0.000000 0.000001 0.000001 0.000006 0.000001 0.000001 0.000000 0.000000 0.000000 0.000000 0.000000 0.000000 0.000001 0.000000 0.000000 0.000000 0.000000 0.000000 0.000000 0.000000 0.000000 0.000001 0.000000 0.000001 0.000009 0.000002 0.000001 0.000003 0.000001 0.000001 0.000001 0.000000 0.000001 0.000010 0.000003 0.000001 0.000001 0.000000 0.000002 0.000000 0.000000 0.000000 0.000000 0.000000 0.000000 0.000000 0.000000 0.000000 0.000000 0.000000 0.000000 0.000000 0.000000 0.000001 0.000003 0.000062 0.000083 0.000041 0.000151 0.000211 0.000061 0.000164 0.000027 0.000076 0.000001 0.000000 0.000000 0.000000 0.000000 0.000000 0.000000 0.000000 0.000000 0.000000 0.000000 0.000000 0.000000 0.000000 0.000000 0.000000 0.000000 0.000000 0.000001 0.000001 0.000000 0.000000 0.000001 0.000007 0.000000 0.000001 0.000000 0.000000 0.000000 0.000041 0.000027 0.000001 0.000003 0.000041 0.000001 0.000000 0.000000 0.000000 0.000000 0.000000 0.000000 0.000000 0.000000 0.000000 0.000000 0.000001 0.000003 0.000029 0.000007 0.000012 0.000034 0.000038 0.000000 0.000000 0.000000 0.000000 0.000000 0.000000 0.000000 0.000000 0.000000 0.000000 0.000000 0.000007 0.000002 0.000000 0.000000 0.000000 0.000001 0.000001 0.000001 0.000000 0.000000 0.000000 0.000000 0.000000 0.000000 0.000000 0.000000 0.000000 0.000000 0.000000 0.000000 0.000000 0.000000 0.000000 0.000000 0.000000 0.000002 0.000000 0.000000 0.000000 0.000000 0.000000 0.000000 0.000000 0.000000 0.000000 0.000000 0.000000 0.000003 0.000004 0.000006 0.000000 0.000000 0.000000 0.000000 0.000000 0.000000 0.000000 0.000001 0.000002 0.000009 0.000033 
0.958385 0.705802 0.599915 0.900726 0.497878 0.534856 0.948220 0.921884 0.893942 0.856829 0.783004 0.793918 0.793994 0.834229 0.815374 0.745132 0.770045 0.621819 0.686015 0.785682 0.138075 0.118038 0.211928 0.284368 0.165487 0.216571 0.853128 0.840553 0.134707 0.467051 0.538316 0.551881 0.704227 0.918174 0.612258 0.732370 0.887079 0.778391 0.066333 0.348580 0.605887 0.345507 0.482845 0.274461 0.483713 0.409420 0.700580 0.929571 0.926847 0.784139 0.855758 0.784023 0.395639 0.112260 0.330180 0.875211 0.326340 0.295744 0.733171 0.506444 0.909700 0.952439 0.596807 0.911253 0.999782 0.983391 0.952004 0.890242 0.598729 0.981585 0.960005 0.896628 0.815697 0.454610 0.933998 0.899612 0.951891 0.819813 0.974912 0.853380 0.930776 0.595782 0.933469 0.413447 0.516768 0.181784 0.823841 0.803620 0.875733 0.348266 0.847762 0.940500 0.271534 0.685318 0.935761 0.960778 0.901009 0.956891 0.864922 0.940555 0.919795 0.961197 0.942748 0.950961 0.849192 0.898767 0.902617 0.922994 0.688423 0.460332 0.530807 0.924724 0.831561 0.779725 0.838997 0.823431 0.904916 0.908996 0.898341 0.982498 0.910431 0.958707 0.942764 0.869342 0.747181 0.809676 0.540908 0.547927 0.040619 0.938245 0.919446 0.911069 0.906831 0.762042 0.954476 0.893521 0.475409 0.816865 0.900758 0.140109 0.911355 0.844660 0.656157 0.556872 0.329909 0.288102 0.051511 0.032066 0.083593 0.325498 0.883363 0.755486 0.962530 0.950498 0.981458 0.951186 0.946938 0.955196 0.906851 0.969662 0.939524 0.934021 0.912464 0.947758 0.888076 0.964163 0.932989 0.921447 0.752970 0.778320 0.928086 0.816224 0.848057 0.944542 0.936725 0.889706 0.500930 0.742318 0.928911 0.940515 0.971546 0.838204 0.913611 0.850137 0.873566 0.540788 0.948608 0.904725 0.949382 0.920066 0.448088 0.976529 0.915705 0.970631 0.982530 0.971769 0.952349 0.973359 0.965325 0.952422 0.977985 0.978862 0.892226 0.949971 0.851878 0.980869 0.947154 0.807140 0.965545 0.687927 0.252967 0.905521 0.900183 0.941168 0.842817 0.942956 0.887535 0.789140 0.966922 0.824814 0.934861 0.837697 0.691176 0.951821 0.392999 0.131968 0.185981 0.134009 0.020400 0.741414 0.754945 0.985119 
0.989935 0.986510 0.972011 0.993220 0.052969 0.133887 0.579421 0.960564 0.280955 0.017285 0.970277 0.998140 0.999661 0.999856 0.999422 0.987067 0.999097 0.998373 0.998310 0.999937 0.999605 0.999919 0.998606 0.999481 0.997478 0.999777 1.000000 0.999998 0.999997 0.999999 0.999987 0.999984 0.999983 0.996577 0.991974 0.991621 0.990121 0.918053 0.998278 0.891825 0.984434 0.957435 0.982226 0.987548 0.962372 0.682112 0.926325 0.972098 0.996611 0.959329 0.998299 0.989895 0.993145 0.998192 0.854184 0.013863 0.195286 0.651199 0.987025 0.105398 0.181166 0.807650 0.990801 0.473236 0.984355 0.998482 0.993627 0.959611 0.999932 0.301990 0.951715 0.972006 0.952105 0.784041 0.999433 0.934087 0.857293 0.949744 0.980919 0.969993 0.950692 0.995246 0.966498 0.788668 0.974533 0.421796 0.002184 0.003302 0.153068 0.159967 0.779856 0.536008 0.920544 0.999899 0.986785 0.998043 0.998818 0.978900 0.991736 0.998505 0.999327 0.997917 0.990956 0.955504 0.963252 0.539192 0.060287 1.000000 1.000000 1.000000 1.000000 1.000000 1.000000 1.000000 1.000000 1.000000 1.000000 1.000000 0.999999 0.999965 0.998475 0.999814 0.999875 0.999738 0.999869 0.998753 0.999276 0.999588 0.999072 0.999758 0.928821 0.999624 0.997384 0.990225 0.995119 0.998625 0.999191 0.982712 0.999577 0.517612 0.820986 0.134807 0.823432 0.014592 0.250321 0.579702 0.984218 0.946953 0.988388 0.987673 0.959172 0.980811 0.997640 0.989987 0.739285 0.108387 0.448631 0.356873 0.490296 0.965021 0.999009 0.987010 0.951391 0.566883 0.007833 0.004678 0.009320 0.144788 0.067734 0.945335 0.996264 0.997959 0.999075 0.998710 0.998844 0.995339 0.995874 0.999433 0.999493 0.999697 0.999692 0.999453 0.999945 0.996323 0.903515 0.899931 0.999459 0.999722 0.986976 0.980524 0.998909 0.962249 0.999100 0.998714 0.999704 0.997696 0.988150 0.973543 0.983466 0.939626 0.324346 0.932909 0.060343 0.423447 0.792392 0.003297 0.002657 0.302959 0.075113 0.630346 0.976161 0.958360 0.981731 0.983222 0.998585 0.998972 
0.050517 0.027719 0.258082 0.962117 0.942590 0.942456 0.977462 0.903847 0.684875 0.878690 0.915910 0.978646 0.951154 0.970377 0.816031 0.814157 0.762779 0.936140 0.858214 0.659017 0.743280 0.980127 0.834917 0.871825 0.807931 0.786350 0.827057 0.782902 0.981403 0.986271 0.791254 0.924611 0.995051 0.978814 0.988757 0.970199 0.990164 0.943530 0.739783 0.962384 0.995932 0.968649 0.997006 0.996438 0.990793 0.986988 0.988640 0.991575 0.988575 0.931637 0.954972 0.622815 0.098036 0.433352 0.328476 0.935351 0.791421 0.977386 0.969836 0.930356 0.571039 0.776163 0.645405 0.852264 0.900603 0.241493 0.978496 0.990005 0.906042 0.997634 0.943067 0.995365 0.970235 0.954921 0.858571 0.331224 0.530613 0.983430 0.815305 0.985457 0.967957 0.918070 0.963983 0.965838 0.980475 0.599797 0.958735 0.936704 0.988967 0.920020 0.908452 0.982480 0.884383 0.553584 0.863180 0.963432 0.982705 0.956928 0.978468 0.901296 0.935611 0.824055 0.498096 0.532003 0.693533 0.799812 0.931882 0.787443 0.606760 0.626346 0.068918 0.191738 0.294182 0.192156 0.256808 0.378377 0.959017 0.946184 0.886271 0.945755 0.992867 0.713374 0.985765 0.990096 0.988607 0.997991 0.994673 0.990252 0.987329 0.990780 0.042967 0.612312 0.228295 0.185490 0.148357 0.997634 0.805376 0.976454 0.983999 0.885749 0.769836 0.803230 0.429360 0.986620 0.990058 0.983038 0.936046 0.993905 0.979114 0.987245 0.991643 0.999598 0.976300 0.978807 0.998646 0.996128 0.989907 0.976676 0.991440 0.999983 0.999826 0.999622 0.999974 0.998789 0.999655 0.998825 0.998900 0.992002 0.991059 0.985904 0.986382 0.945069 0.987324 0.968882 0.957630 0.946950 0.688919 0.965320 0.967067 0.803483 0.887270 0.889242 0.889872 0.760526 0.725829 0.673420 0.700520 0.955451 0.821333 0.936133 0.792926 0.959529 0.956964 0.824410 0.833775 0.988548 0.945124 0.785494 0.038245 0.538156 
0.044769 0.936935 0.896731 0.584337 0.093201 0.149942 0.233725 0.474744 0.026517 0.132475 0.061799 0.004682 0.003162 0.006426 0.024687 0.007028 0.009156 0.013839 0.004857 0.009794 0.016404 0.022532 0.152637 0.026213 0.008491 0.009152 0.009232 0.015802 0.016810 0.012261 0.013584 0.007656 0.004979 0.000398 0.000961 0.028655 0.030429 0.538571 0.527170 0.088561 0.643545 0.043659 0.383105 0.175390 0.045300 0.073108 0.366735 0.078333 0.098692 0.695260 0.457603 0.578140 0.269464 0.692308 0.106966 0.021140 0.051678 0.030926 0.015818 0.106382 0.017726 0.049388 0.078435 0.208267 0.049839 0.013285 0.080629 0.008160 0.008971 0.071849 0.031941 0.064835 0.059314 0.012433 0.003323 0.004320 0.004868 0.005812 0.008940 0.012338 0.537588 0.920977 0.943636 0.814341 0.934671 0.840276 0.377245 0.019327 0.069569 0.061944 0.001482 0.001757 0.001898 0.018426 0.033708 0.021405 0.001967 0.004754 0.001720 0.000288 0.000271 0.000363 0.000401 0.004703 0.001863 0.003732 0.004844 0.003511 0.003564 0.001299 0.001294 0.003495 0.002171 0.015987 0.020963 0.010288 0.010670 0.024364 0.017437 0.018518 0.037975 0.020162 0.011737 0.006919 0.001390 0.009761 0.039907 0.011640 0.139524 0.034161 0.885257 0.675349 0.930389 0.520222 0.190867 0.004245 0.019043 0.446937 0.285164 0.148041 0.007315 0.017967 0.005598 0.080075 0.426160 0.013847 0.000230 0.021805 0.092678 0.000193 0.002708 0.002717 0.009441 0.009053 0.030765 0.014097 0.005658 0.013537 0.009485 0.015782 0.012953 0.017249 0.004129 0.009729 0.003658 0.007296 0.001145 0.067020 0.898785 0.845261 0.181208 0.872213 0.747544 0.166146 0.363329 0.007389 0.001144 0.127366 0.920555 0.792448 0.019538 0.000704 0.020252 0.071961 0.956159 0.925511 0.972582 0.194362 0.021527 0.135925 0.093664 0.087328 0.048047 0.435023 0.960535 0.977956 0.082400 
0.817458 0.060186 0.071389 0.702385 0.010187 0.027383 0.009227 0.250521 0.077263 0.873059 0.214169 0.171316 0.127916 0.259831 0.690659 0.363430 0.106348 0.530688 0.446559 0.928031 0.950684 0.830553 0.076291 0.034711 0.394906 0.029511 0.220344 0.011431 0.102592 0.626137 0.161938 0.261839 0.313868 0.274875 0.840913 0.469373 0.355551 0.793794 0.040596 0.944987 0.785275 0.196236 0.048701 0.219447 0.927515 0.898837 0.667624 0.799065 0.295794 0.759335 0.482783 0.145291 0.790652 0.196112 0.555913 0.390227 0.036049 0.918475 0.662824 0.590130 0.638644 0.756472 0.840542 0.821583 0.968742 0.907755 0.569594 0.294828 0.063497 0.978026 0.934956 0.523474 0.987737 0.889829 0.922400 0.344547 0.829308 0.792610 0.912481 0.867680 0.931225 0.959352 0.985033 0.914282 0.964996 0.852442 0.972252 0.794139 0.971873 0.813141 0.688321 0.643004 0.969695 0.376511 0.983411 0.982363 0.948031 0.974976 0.976251 0.993759 0.978362 0.982931 0.918360 0.969626 0.992342 0.964329 0.975303 0.961976 0.979319 0.999911 0.987452 0.996164 0.983078 0.991618 0.997215 0.982006 0.801663 0.984235 0.975100 0.988129 0.900430 0.962337 0.989716 0.957041 0.991784 0.946012 0.964998 0.988533 0.981651 0.980242 0.781932 0.732996 0.965389 0.693343 0.940293 0.899215 0.949476 0.926355 0.977870 0.974136 0.817161 0.893425 0.928149 0.790868 0.832923 0.931329 0.988118 0.975307 0.993436 0.994676 0.983522 0.998647 0.957671 0.994353 0.995175 0.986868 0.989429 0.981233 0.987906 0.993126 0.995171 0.992967 0.982430 0.985332 0.993322 0.971279 0.735393 0.994461 0.996676 0.989897 0.999454 0.999031 0.997453 0.998394 0.985474 0.997628 0.997591 0.998620 0.992147 0.960570 0.990191 0.998719 0.960624 0.995672 0.998086 0.971568 0.981053 0.994773 0.992467 0.993267 0.989333 0.905937 0.987813 0.995804 0.986484 0.995375 0.972655 0.979533 0.995886 0.985281 0.984922 0.991891 0.999273 0.991399 0.974629 0.998560 0.988347 0.994585 0.998381 0.992505 0.996485 0.945484 0.973242 0.976435 0.973446 0.981302 0.920181 0.942438 0.972872 0.996897 0.992322 0.996464 0.989185 0.987643 0.996023 0.995967 0.993794 0.990949 0.993233 0.989213 0.996639 0.999145 0.999268 0.996545 0.998973 0.996713 0.994915 0.998543 0.998212 0.994110 0.182755 0.995323 0.882584 0.999920 0.997129 0.988153 0.999920 0.999026 0.981630 0.996564 0.993349 0.995122 0.996388 0.996553 0.988778 0.990679 0.991472 0.988112 0.970535 0.999685 0.928061 
0.000671 0.454605 0.006197 0.034399 0.007658 0.127754 0.409026 0.962124 0.253684 0.433856 0.357916 0.541237 0.708537 0.439346 0.239393 0.240313 0.369410 0.447442 0.242607 0.216067 0.096996 0.262726 0.373767 0.528932 0.117651 0.257518 0.093185 0.219979 0.118742 0.963809 0.854065 0.231785 0.172225 0.650457 0.544790 0.018857 0.547511 0.419438 0.197815 0.927572 0.064073 0.025021 0.265251 0.778938 0.422218 0.374675 0.140820 0.003047 0.016284 0.741642 0.009673 0.014554 0.999830 0.998477 0.999954 0.249226 0.045498 0.064494 0.000832 0.000025 0.000241 0.003994 0.000679 0.000910 0.012357 0.284160 0.782102 0.450006 0.985117 0.913042 0.770352 0.347945 0.951279 0.791833 0.966822 0.989947 0.937160 0.679972 0.508429 0.593665 0.552998 0.469645 0.718530 0.902297 0.472653 0.855167 0.679120 0.600070 0.280404 0.489517 0.688100 0.355788 0.398191 0.997823 0.994146 0.983198 0.982381 0.916014 0.434296 0.625935 0.101151 0.119972 0.999993 1.000000 0.970155 0.670419 0.918289 0.693500 0.149053 0.902353 0.891146 0.968062 0.731706 0.993873 0.566680 0.934483 0.979049 0.895207 0.988765 0.961823 0.913687 0.960425 0.990632 0.000630 0.000753 0.011651 0.501476 0.005356 0.438390 0.033231 0.013845 0.403091 0.483281 0.068757 0.094655 0.037991 0.232427 0.107381 0.034791 0.003606 0.205823 0.054509 0.986683 0.996215 0.998677 0.992413 0.970750 0.217832 0.046650 0.004412 0.110748 0.808600 0.998098 0.109885 0.579531 0.974551 0.995716 0.760329 0.865839 0.932022 0.735274 0.992227 0.876038 0.919972 0.906546 0.914723 0.760892 0.452528 0.846154 0.318668 0.227817 0.476379 0.951887 0.932687 0.628064 0.352728 0.889678 0.978587 0.464709 0.760894 0.946334 0.459763 0.955170 0.145358 0.039798 0.012103 0.473148 0.999365 0.994399 0.938030 0.969974 0.983071 0.999192 0.907895 0.121642 0.990336 0.646443 0.993254 0.936618 0.305345 0.486434 0.008482 0.000766 0.238153 0.004172 0.628576 0.100716 0.959058 0.907748 0.274338 0.926576 0.543854 0.982717 0.985458 0.924988 0.997990 0.999668 0.977316 0.856586 0.824776 
0.999592 0.997541 0.957926 0.923700 0.969788 0.930405 0.892300 0.865080 0.998954 0.999065 0.960155 0.898527 0.980301 0.957333 0.930631 0.907287 0.884202 0.885679 0.912432 0.931634 0.970679 0.978869 0.992193 0.987646 0.994069 0.989672 0.999995 1.000000 0.963860 0.998979 0.999991 0.998393 0.992927 0.995465 0.998444 0.995684 0.794640 0.000008 0.999923 0.953085 0.000407 0.997107 0.100425 0.930958 0.998845 0.731033 0.167225 0.957809 0.891638 0.999089 0.712456 0.000004 0.002119 0.999398 0.998871 0.997005 0.058270 0.985418 0.977630 0.979124 0.969033 0.986445 0.961071 0.753112 0.977957 0.994207 0.999000 0.995161 0.989036 0.981235 0.793988 0.548207 0.837022 0.999595 0.998730 0.999961 0.999998 0.999995 0.998199 0.999940 0.980061 0.954480 0.988899 0.997048 0.999203 0.999280 0.999999 0.999992 0.946971 0.999995 0.996659 0.997917 0.993342 0.977195 0.999891 0.776362 0.977103 0.667985 0.998497 0.997258 0.994305 0.998849 0.989854 0.997568 0.987771 0.999068 0.997748 0.996272 0.994229 0.987016 0.997258 0.994763 0.993868 0.974583 0.572670 0.722285 0.800895 0.727126 0.926092 0.907967 0.999913 0.999987 0.999982 0.999996 0.999907 0.999938 0.995880 0.997062 0.994019 0.996299 0.999638 0.999897 0.997185 0.975193 0.969553 0.987077 0.988439 0.978812 0.973611 0.994177 0.984588 0.999468 0.997361 0.987854 0.998456 0.932127 0.965762 0.956162 0.996648 1.000000 1.000000 0.986609 0.983040 0.997759 0.957055 0.993938 0.996743 0.977739 0.989694 0.985237 0.981459 0.993399 0.928889 0.999883 0.997217 0.998034 0.988436 0.994829 0.997642 0.999598 0.999646 0.995492 0.999583 0.984831 0.978680 0.989794 0.965556 0.930164 0.850000 0.709252 0.906883 0.996964 0.992656 0.964507 0.990459 0.989006 0.994985 0.990595 0.964002 0.954133 0.901890 0.979915 0.990624 0.990332 0.982129 0.972422 0.985072 0.958847 0.995924 0.975674 0.989624 0.999867 0.995937 0.957335 0.992711 0.998813 0.977681 0.959574 0.972726 0.985203 0.988900 0.984953 0.991891 0.967155 0.990697 0.986401 0.954796 0.972296 0.827284 0.840968 0.917744 0.865257 0.940350 0.903032 0.939428 0.861075 0.916860 0.958173 0.959209 0.974354 0.977029 
0.999615 0.987157 0.996263 0.996824 0.999790 0.999643 0.997999 0.999893 0.999893 0.999498 0.999966 0.999955 0.999804 0.999989 0.999851 0.999982 0.999968 0.999951 0.999985 0.999979 0.999975 0.999948 0.999937 0.999992 0.999931 0.999910 0.999433 0.999603 0.962778 0.835096 0.999998 0.999951 0.986473 0.958980 0.999973 0.997584 0.999967 0.999655 0.999719 0.999970 0.999826 0.999985 0.997437 0.999908 0.999795 0.999805 0.995611 0.998434 0.999999 0.999977 0.999972 0.999999 0.999995 0.999998 0.999994 0.999998 0.999998 0.999993 0.999011 0.999997 0.999968 0.999982 0.999995 0.999999 0.999947 0.997890 0.986092 0.352931 0.572182 0.999926 0.982220 0.588984 0.845654 0.998449 0.991177 0.999641 0.999989 0.999995 0.999995 0.999908 0.998713 0.999587 0.999111 0.999492 0.999609 0.997484 0.999098 0.998762 0.994539 0.998064 0.999151 0.998110 0.999686 0.999454 0.997641 0.998399 0.996399 0.998890 0.994917 0.996267 0.993250 0.998023 0.994328 0.973166 0.947996 0.958755 0.941707 0.683023 0.941507 0.965490 0.997721 0.996144 0.999886 0.999999 0.999914 0.999503 0.998339 0.996597 0.999851 0.999910 0.999316 0.999574 0.999888 0.928876 0.999999 0.999910 0.991998 0.994919 0.999837 0.996606 0.996571 0.995272 0.999372 0.999167 0.999955 0.999994 0.999999 0.999999 0.999973 1.000000 0.999994 1.000000 0.999999 0.999991 0.999969 0.999992 0.999976 0.999997 0.999862 0.999905 0.999809 0.999153 0.999709 0.999189 0.996360 0.998600 0.995840 0.999335 0.996219 0.999987 0.999633 0.999986 0.999601 0.998522 0.999819 0.999610 0.999926 0.999569 0.999990 0.999694 0.996101 0.940248 1.000000 0.999966 0.993709 0.981953 0.937244 0.927416 0.416240 0.787134 0.987885 0.952620 0.998516 0.962588 0.717348 0.873371 0.969936 0.996774 0.999963 0.999986 0.999560 
0.871724 0.430174 0.960202 0.666846 0.744846 0.970800 0.748831 0.284653 0.367116 0.944582 0.285513 0.015829 0.975341 0.989078 0.999237 0.998006 0.997907 0.985109 0.990431 0.990472 0.962917 0.960379 0.991452 0.995009 0.962039 0.987985 0.962839 0.978571 0.982126 0.960732 0.970452 0.940988 0.942697 0.994818 0.978841 0.567959 0.965158 0.381577 0.939037 0.981662 0.953254 0.994970 0.991356 0.988537 0.993607 0.986654 0.975064 0.989403 0.960652 0.986492 0.989280 0.998772 0.999169 0.998835 0.997911 0.941334 0.988497 0.994790 0.994474 0.999541 0.996018 0.998674 0.988592 0.998863 0.999743 0.997423 0.989030 0.998286 0.997673 0.994676 0.996972 0.985798 0.998156 0.996436 0.976203 0.997606 0.985811 0.933730 0.697399 0.996789 0.997572 0.993317 0.990935 0.996171 0.999454 0.997364 0.997691 0.990245 0.994725 0.996934 0.992800 0.994695 0.998836 0.995156 0.998806 0.993698 0.999388 0.994687 0.989149 0.996575 0.976608 0.992731 0.984597 0.998888 0.995774 0.669033 0.939331 0.992392 0.844002 0.065548 0.999363 0.993928 0.998280 0.995713 0.991179 0.997479 0.999299 0.990624 0.999750 0.996178 0.998937 0.998606 0.984480 0.999253 0.990310 0.975990 0.992135 0.981322 0.990157 0.983253 0.986065 0.977695 0.985634 0.982074 0.952679 0.974372 0.907149 0.958152 0.999270 0.592124 0.355563 0.982097 0.851873 0.647412 0.711042 0.218116 0.996197 0.777965 0.502208 0.995317 0.992607 0.998483 0.989799 0.967338 0.869008 0.976943 0.616266 0.658629 0.655273 0.987136 0.991383 0.962926 0.517835 0.966272 0.987322 0.998803 0.998233 0.995236 0.984905 0.332278 0.888741 0.852407 0.992923 0.721107 0.995880 0.869778 0.968765 0.890197 0.970276 0.947568 0.911172 0.989335 0.701376 0.928674 0.998221 0.958267 0.040649 0.968935 0.665050 0.991215 0.281657 0.971939 0.990392 0.951714 0.098554 0.174090 0.649236 0.069965 0.003230 0.028364 0.010770 0.296647 0.601979 0.893467 0.911952 0.856571 
0.994629 0.000645 0.036434 0.994469 0.960677 0.136537 0.377406 0.029291 0.001775 0.299442 0.966454 0.743329 0.993525 0.998551 0.967920 0.985540 0.984729 0.989591 0.972503 0.979095 0.987170 0.998949 0.999660 0.999786 0.999582 0.988131 0.993231 0.961977 0.997931 0.974805 0.966859 0.990565 0.998606 0.981718 0.935560 0.990396 0.984095 0.919084 0.951843 0.781549 0.678999 0.604654 0.143102 0.895221 0.204529 0.978819 0.997517 0.762596 0.059719 0.005706 0.724241 0.004306 0.000772 0.012447 0.011585 0.027791 0.381913 0.210239 0.958549 0.311608 0.018051 0.043210 0.002023 0.000137 0.000416 0.122251 0.067088 0.016503 0.974885 0.381300 0.887230 0.974838 0.982037 0.985734 0.991640 0.993394 0.975697 0.988046 0.978902 0.030138 0.545921 0.970362 0.722978 0.892971 0.737656 0.225869 0.009907 0.019509 0.023636 0.008025 0.006625 0.034262 0.602413 0.973463 0.980092 0.924381 0.996349 0.624673 0.936442 0.963265 0.850305 0.873398 0.943493 0.948513 0.998550 0.996366 0.996138 0.984344 0.996019 0.172418 0.012371 0.004110 0.724501 0.613333 0.965967 0.996886 0.997398 0.997364 0.996957 0.992628 0.998207 0.868002 0.426498 0.996726 0.990344 0.992158 0.985373 0.889399 0.679388 0.945486 0.058510 0.000198 0.000317 0.000168 0.000921 0.086415 0.994876 0.981908 0.723230 0.009477 0.693617 0.920514 0.029111 0.000477 0.015833 0.377858 0.992075 0.828769 0.220498 0.283711 0.017908 0.009919 0.869577 0.311734 0.998295 0.997880 0.996679 0.971655 0.250325 0.815787 0.962976 0.910373 0.925430 0.613830 0.735783 0.751057 0.944814 0.008966 0.750742 0.999063 0.987808 0.329439 0.975995 0.784138 0.883060 0.432339 0.083299 0.001998 0.429240 0.854264 0.316341 0.590646 0.024142 0.981645 0.247557 0.249129 0.003106 0.026572 0.615097 0.019162 0.011030 0.033796 0.010148 0.282209 
0.159726 0.883709 0.754166 0.219920 0.681337 0.214784 0.027236 0.008746 0.006492 0.015794 0.034034 0.095603 0.082848 0.050810 0.066885 0.040470 0.056377 0.045571 0.053181 0.033228 0.020985 0.033444 0.024025 0.013152 0.023878 0.015312 0.010231 0.014518 0.061448 0.018341 0.033554 0.002370 0.356647 0.998560 0.112698 0.018468 0.006043 0.000857 0.003457 0.004375 0.209511 0.086516 0.220929 0.094308 0.003418 0.000910 0.005534 0.014111 0.688745 0.330795 0.011793 0.007769 0.036486 0.031064 0.003974 0.590814 0.978455 0.958148 0.204903 0.938229 0.027001 0.000705 0.000332 0.000852 0.106229 0.011251 0.025643 0.003836 0.005196 0.010032 0.018202 0.015263 0.032357 0.015918 0.019514 0.017127 0.021450 0.023404 0.039819 0.057596 0.065170 0.015054 0.110100 0.413106 0.470108 0.022368 0.902981 0.990066 0.989741 0.894365 0.866193 0.394820 0.829322 0.788871 0.009145 0.006331 0.033682 0.083881 0.005245 0.007742 0.002127 0.005354 0.003379 0.002235 0.004684 0.000728 0.002466 0.003239 0.001276 0.000993 0.005027 0.007874 0.198381 0.998960 0.989046 0.996317 0.960090 0.469549 0.947186 0.152018 0.846608 0.887087 0.277995 0.067274 0.030400 0.170609 0.472473 0.021734 0.011542 0.071797 0.995224 0.350449 0.277753 0.393330 0.053522 0.030694 0.175397 0.029336 0.225201 0.189328 0.122759 0.162345 0.410446 0.959576 0.995221 0.996258 0.977241 0.935188 0.049081 0.066329 0.075243 0.065515 0.024465 0.022014 0.007766 0.002150 0.008961 0.004852 0.042514 0.054318 0.032079 0.025040 0.016598 0.027716 0.037756 0.135668 0.808299 0.685378 0.945068 0.984375 0.629863 0.889762 0.259787 0.583579 0.029596 0.088999 0.028610 0.229806 0.667079 0.135700 0.886147 0.335429 0.260817 0.174550 0.128057 0.098532 0.132624 0.441435 0.036735 0.171212 0.319620 0.894409 0.020486 0.031199 0.135084 0.272690 0.434999 0.833103 0.258960 0.914996 0.378592 0.558697 
0.003362 0.969031 0.039416 0.891355 0.269918 0.656199 0.539706 0.017019 0.003912 0.033207 0.025281 0.002076 0.005130 0.025875 0.168218 0.274409 0.152724 0.408335 0.987812 0.329541 0.031127 0.704621 0.749216 0.748141 0.550411 0.196199 0.104430 0.531105 0.302300 0.502788 0.400844 0.220945 0.116602 0.190016 0.459752 0.994802 0.983984 0.026993 0.063239 0.471293 0.043036 0.610505 0.026967 0.679747 0.622742 0.985512 0.910440 0.983193 0.978371 0.968624 0.858205 0.997442 0.999051 0.089005 0.147007 0.023115 0.088502 0.975790 0.000007 0.004673 0.001454 0.011985 0.001728 0.001076 0.005224 0.021935 0.779135 0.016818 0.228260 0.004112 0.028737 0.009069 0.086093 0.228288 0.756927 0.038080 0.169837 0.006358 0.710293 0.986099 0.821591 0.650302 0.031719 0.017900 0.856133 0.505528 0.682061 0.795150 0.108407 0.702680 0.291402 0.359494 0.326923 0.801700 0.853177 0.997033 1.000000 0.999995 0.999999 1.000000 0.999997 0.999999 0.999998 0.999494 0.989597 0.999542 0.998271 0.996806 0.993668 0.997666 0.998208 0.989779 0.988981 0.987861 0.952372 0.990828 0.999992 0.999988 0.996340 0.385362 0.543724 0.272570 0.728127 0.763870 0.890529 0.858837 0.307608 0.029303 0.252606 0.138411 0.050373 0.026810 0.011045 0.015500 0.133163 0.081803 0.997758 0.215191 0.248984 0.606723 0.999542 0.999975 0.999957 0.999982 0.999998 0.999942 1.000000 1.000000 0.999985 0.999883 0.999982 0.989239 0.993360 0.997105 0.996345 0.999321 0.823864 0.022155 0.222882 0.950111 0.182932 0.627833 0.207999 0.130188 0.086466 0.954651 0.763807 0.456146 0.026585 0.081857 0.596336 0.833930 0.640861 0.720853 0.801511 0.906493 0.179470 0.021988 0.060822 0.057253 0.945859 0.611225 0.469254 0.713198 0.444178 0.458468 0.022008 0.129397 0.084330 0.968125 0.314818 0.510617 0.987918 0.985403 0.999796 0.999918 0.999989 0.999996 0.999995 0.999976 0.999959 0.999591 0.999788 0.999253 0.998994 0.987866 0.984705 0.994117 0.977786 0.802573 0.992725 0.364154 0.997299 0.999614 0.632210 0.211920 0.998974 0.784330 0.022618 0.910061 0.972158 0.012157 0.007925 
0.033408 0.023379 0.001444 0.001643 0.000673 0.003044 0.001792 0.001734 0.000704 0.002177 0.001573 0.003221 0.000675 0.002429 0.001907 0.000942 0.001084 0.000620 0.001358 0.001182 0.001717 0.013799 0.048888 0.659885 0.012569 0.003181 0.006334 0.010854 0.005202 0.009211 0.000900 0.000693 0.001092 0.000297 0.000395 0.000235 0.002187 0.000652 0.000638 0.000978 0.000588 0.000248 0.003180 0.010374 0.061623 0.014684 0.641674 0.466463 0.025766 0.010329 0.004816 0.005067 0.003870 0.001309 0.003991 0.002745 0.008897 0.011949 0.002863 0.007125 0.003490 0.000579 0.001906 0.009531 0.006441 0.000789 0.005191 0.000895 0.000723 0.001212 0.002702 0.000960 0.002438 0.002995 0.000963 0.000837 0.001059 0.000770 0.001159 0.002095 0.000846 0.000779 0.000469 0.000567 0.001472 0.000264 0.026019 0.065988 0.021944 0.010275 0.000574 0.019575 0.012747 0.000092 0.006030 0.005566 0.021590 0.006505 0.004895 0.013671 0.002766 0.004453 0.016892 0.011716 0.015534 0.187951 0.011195 0.016312 0.033341 0.001313 0.000240 0.000836 0.002588 0.000628 0.000325 0.000499 0.000899 0.000812 0.001283 0.005487 0.032377 0.006094 0.096797 0.053339 0.008540 0.000299 0.000815 0.000777 0.011967 0.020973 0.041195 0.002727 0.002451 0.001098 0.001592 0.000201 0.001058 0.000566 0.000131 0.000728 0.000000 0.003743 0.100186 0.079045 0.043063 0.026037 0.015570 0.225940 0.038979 0.035601 0.007346 0.016488 0.003927 0.000466 0.001246 0.000552 0.007894 0.005647 0.004629 0.003962 0.003009 0.000334 0.000320 0.000201 0.002084 0.000554 0.000234 0.000402 0.000467 0.000151 0.000105 0.000658 0.000219 0.000228 0.000623 0.000120 0.000088 0.000468 0.015098 0.003462 0.010405 0.005219 0.019769 0.007111 0.011463 0.000001 0.003552 0.005954 0.002200 0.023755 0.002721 0.321587 0.126472 0.002745 0.000964 0.002608 0.005679 0.001409 0.009462 0.001088 
0.060010 0.241493 0.097777 0.008882 0.010499 0.007031 0.032431 0.004094 0.004312 0.112609 0.045707 0.075299 0.065824 0.173180 0.325800 0.175261 0.012103 0.009224 0.038901 0.125041 0.352304 0.670946 0.811092 0.777902 0.109311 0.378799 0.212414 0.330966 0.133253 0.233971 0.125901 0.735017 0.447426 0.158614 0.833160 0.691540 0.631656 0.567686 0.956355 0.871004 0.014041 0.047737 0.113538 0.022386 0.011388 0.002158 0.070903 0.003942 0.007753 0.201323 0.129432 0.173234 0.046798 0.330379 0.330541 0.429664 0.660734 0.252143 0.333317 0.513099 0.535379 0.641990 0.052798 0.084752 0.001858 0.133938 0.013339 0.164390 0.182535 0.226498 0.041165 0.255499 0.019266 0.013827 0.043946 0.004971 0.016719 0.007533 0.053886 0.010576 0.016973 0.115452 0.161152 0.685012 0.708953 0.695029 0.749751 0.887122 0.908136 0.886184 0.938445 0.616981 0.790997 0.790550 0.916299 0.909011 0.425633 0.412546 0.365548 0.032178 0.207710 0.400071 0.728361 0.201785 0.692745 0.059943 0.314016 0.072725 0.007736 0.132944 0.109349 0.044425 0.086061 0.501514 0.728244 0.320470 0.785318 0.938050 0.962932 0.965622 0.959472 0.706966 0.223508 0.695845 0.590996 0.086266 0.870186 0.942356 0.812516 0.699207 0.435918 0.176680 0.779501 0.829177 0.344419 0.225664 0.033995 0.004739 0.030685 0.732556 0.970390 0.833162 0.619521 0.046914 0.016414 0.157506 0.120281 0.502050 0.641857 0.103646 0.442128 0.163522 0.004491 0.007609 0.598926 0.262247 0.083316 0.007891 0.026037 0.196395 0.314355 0.026788 0.863251 0.749482 0.069255 0.023291 0.088499 0.044073 0.060967 0.308278 0.303350 0.075062 0.106419 0.049238 0.047922 0.027350 0.434351 0.120993 0.685593 0.140232 0.457014 0.395901 0.871674 0.778770 0.929143 0.395804 0.173070 0.078940 0.129471 0.053009 0.594795 0.187260 0.889610 0.763033 0.720646 0.887040 0.429464 0.342838 0.322870 0.442970 0.403862 
0.011115 0.006528 0.016041 0.036359 0.002273 0.041842 0.579615 0.936489 0.995348 0.994115 0.998687 0.997846 0.998330 0.994795 0.996960 0.991261 0.992218 0.996998 0.994539 0.985670 0.976340 0.980303 0.805801 0.880948 0.693386 0.934534 0.961962 0.992868 0.968047 0.605104 0.590439 0.252294 0.013240 0.018474 0.009436 0.008132 0.012705 0.032005 0.005433 0.086517 0.000967 0.005643 0.001683 0.058578 0.000052 0.000015 0.000034 0.000011 0.000007 0.000014 0.000007 0.000017 0.001016 0.131569 0.184736 0.144909 0.583596 0.038207 0.016114 0.006780 0.007103 0.031897 0.007375 0.005224 0.007121 0.009728 0.002057 0.000192 0.000125 0.000895 0.003424 0.002873 0.000136 0.000558 0.001091 0.126348 0.255033 0.002176 0.060008 0.613038 0.921333 0.030980 0.017726 0.476929 0.738490 0.980969 0.966236 0.992462 0.993698 0.997599 0.998824 0.997755 0.999228 0.999677 0.998598 0.728458 0.119501 0.072804 0.053750 0.012668 0.004014 0.014748 0.011213 0.000749 0.007788 0.033509 0.092647 0.000183 0.000557 0.004120 0.001653 0.071861 0.329269 0.025330 0.252173 0.023139 0.083404 0.051118 0.002137 0.005106 0.002936 0.009808 0.001374 0.015818 0.002427 0.009254 0.022000 0.001561 0.007438 0.004738 0.007540 0.007777 0.051624 0.001988 0.000480 0.006210 0.010969 0.022143 0.002042 0.007351 0.893221 0.053955 0.305060 0.130202 0.034046 0.012294 0.030682 0.071614 0.053907 0.044319 0.004221 0.001858 0.011625 0.000384 0.000079 0.010506 0.002244 0.055862 0.003878 0.000921 0.000207 0.008202 0.391542 0.848500 0.982862 0.970012 0.992796 0.989299 0.993913 0.991738 0.538589 0.121164 0.048843 0.005689 0.029639 0.005834 0.017427 0.023218 0.024213 0.352941 0.024766 0.021087 0.008272 0.000355 0.001818 0.002057 0.012786 0.001244 0.000939 0.002609 0.000806 0.006515 0.010165 0.031801 0.008049 0.000463 0.005563 0.005439 0.004958 0.001661 0.017301 0.003613 0.005568 0.027628 0.490584 0.007581 0.047545 0.510979 0.078471 0.034105 0.134840 0.080776 0.009495 0.051765 0.008936 0.022713 0.010990 0.002533 0.621305 0.171124 0.029527 0.057116 0.008682 0.002909 0.000548 0.000877 0.014857 0.016149 0.274322 0.906395 0.959152 
0.999195 0.762664 0.961103 0.969580 0.654853 0.993323 0.956616 0.957355 0.973038 0.993195 0.991236 0.993042 0.996935 0.991552 0.999689 0.999599 0.997514 0.997420 0.999281 0.999554 0.998858 0.999067 0.997155 0.996614 0.997705 0.985409 0.997634 0.998112 0.996875 0.997351 0.976975 0.991654 0.994367 0.995507 0.994921 0.996805 0.993351 0.984637 0.989536 0.995427 0.991350 0.997906 0.991997 0.992638 0.987437 0.983050 0.977042 0.984177 0.994673 0.997889 0.990849 0.977082 0.988248 0.998782 0.989452 0.997025 0.994136 0.992590 0.998077 0.999289 0.983841 0.990127 0.995960 0.999045 0.998038 0.988070 0.985984 0.998405 0.992974 0.990482 0.992664 0.996173 0.997437 0.996152 0.995801 0.995763 0.972704 0.976624 0.990981 0.998241 0.985229 0.996945 0.998164 0.993274 0.988770 0.997070 0.999504 0.994584 0.996073 0.993790 0.997079 0.997301 0.995852 0.994043 0.997888 0.991646 0.991154 0.982907 0.988184 0.994079 0.976335 0.825088 0.917627 0.981588 0.971389 0.972867 0.796833 0.991229 0.982498 0.975932 0.855082 0.978214 0.992269 0.995474 0.999395 0.997870 0.999011 0.999568 0.994832 0.996026 0.999902 0.999573 0.996488 0.997642 0.998315 0.991778 0.999838 0.996589 0.993135 0.998289 0.997116 0.995596 0.999057 0.998102 0.998175 0.994770 0.949038 0.980436 0.989491 0.937961 0.989043 0.998789 0.945811 0.953622 0.994792 0.939773 0.927379 0.982067 0.995616 0.999783 0.996520 0.998786 0.888311 0.959148 0.989163 0.983998 0.990252 0.909066 0.993178 0.981904 0.995138 0.987402 0.972786 0.987940 0.998410 0.980419 0.984736 0.998889 0.786791 0.996012 0.994566 0.999769 0.998230 0.998269 0.981912 0.996652 0.991319 0.975888 0.996044 0.995304 0.997034 0.989642 0.996204 0.997572 0.997517 0.995927 0.994117 0.999432 0.998513 0.997945 0.983812 0.982888 0.974531 0.993581 0.995580 0.996526 0.991030 0.998097 0.998003 0.998212 0.986630 0.996658 0.997771 0.997798 0.992481 0.998559 0.995890 0.994947 0.992411 0.990148 0.986765 0.996635 0.996674 0.998475 0.994551 0.996309 0.996332 0.996798 0.998282 0.986537 0.997306 0.997710 0.997568 0.997716 0.995153 0.993561 0.992648 0.995402 0.993460 0.994491 0.996046 0.995332 0.996729 0.997532 0.994401 0.998461 0.997954 0.999230 0.992786 0.991753 0.988092 0.945529 0.953070 0.983266 0.997957 0.984446 0.966790 0.991814 0.966150 0.952308 0.988689 0.968763 0.997923 0.966255 
0.860446 0.987307 0.608815 0.808758 0.512399 0.521028 0.228297 0.565498 0.514179 0.690980 0.776394 0.788206 0.271915 0.942514 0.988828 0.834509 0.935635 0.221420 0.194485 0.890289 0.939834 0.682362 0.979845 0.940877 0.750849 0.926445 0.530419 0.850512 0.994570 0.958097 0.957111 0.999482 0.994828 0.799614 0.995589 0.980591 0.969836 0.988783 0.952923 0.858853 0.704655 0.846512 0.907295 0.992222 0.964097 0.818266 0.736204 0.544720 0.659077 0.840803 0.884893 0.883193 0.947208 0.833475 0.709818 0.593110 0.360187 0.857743 0.415748 0.689561 0.903703 0.988559 0.999315 0.990837 0.980447 0.989361 0.981894 0.815862 0.682354 0.845344 0.883275 0.883488 0.406996 0.589794 0.453262 0.633029 0.752490 0.856865 0.774399 0.965134 0.850450 0.977477 0.591021 0.513403 0.548686 0.443588 0.818336 0.803459 0.931119 0.750869 0.752982 0.864125 0.988120 0.931550 0.831580 0.951138 0.924543 0.999164 0.999874 0.999850 0.984710 0.951181 0.945918 0.969529 0.875400 0.922529 0.864432 0.963181 0.914284 0.939673 0.707453 0.956032 0.884694 0.973693 0.988914 0.994097 0.997864 0.980707 0.999706 0.999380 0.999647 0.999746 0.999875 0.999923 0.988565 0.924872 0.922173 0.925166 0.844153 0.924222 0.975820 0.931425 0.981206 0.979556 0.963408 0.943349 0.177095 0.939435 0.417677 0.857363 0.925853 0.540494 0.850995 0.891085 0.864058 0.927685 0.734958 0.937545 0.909981 0.948631 0.613944 0.861597 0.532545 0.898010 0.925587 0.973036 0.918878 0.939237 0.988226 0.992871 0.999398 0.999962 0.999972 0.963958 0.999393 0.970396 0.902790 0.974467 0.737197 0.956806 0.639341 0.794954 0.970478 0.957594 0.585742 0.563317 0.818550 0.683802 0.914856 0.774905 0.630272 0.668314 0.886057 0.984687 0.908974 0.589042 0.927745 0.918727 0.981690 0.986237 0.998077 0.997274 0.996798 0.998578 0.999871 0.999870 0.999843 0.998910 0.998624 0.999921 0.999340 0.998563 
0.992792 0.993951 0.988649 0.948927 0.997801 0.981395 0.572897 0.949581 0.978939 0.748126 0.932294 0.980442 0.990979 0.999647 0.999982 0.999990 0.999999 0.971519 0.783030 0.635619 0.526594 0.157234 0.052721 0.431764 0.113046 0.078169 0.042319 0.534038 0.693995 0.775926 0.616104 0.518795 0.181963 0.099195 0.150218 0.208818 0.220300 0.046396 0.086164 0.158744 0.152451 0.449043 0.165987 0.187060 0.060264 0.052286 0.772048 0.332568 0.628486 0.948201 0.948672 0.956506 0.747582 0.582330 0.435393 0.721405 0.697790 0.102269 0.035240 0.944166 0.967416 0.661338 0.541368 0.260258 0.237119 0.200758 0.222167 0.704230 0.514435 0.954715 0.838051 0.711838 0.885316 0.608700 0.121957 0.124678 0.296699 0.323720 0.282223 0.206368 0.935244 0.997020 0.937090 0.990521 0.984218 0.989893 0.822852 0.944627 0.874219 0.790261 0.964400 0.837533 0.621126 0.931569 0.966346 0.716186 0.766187 0.891475 0.950029 0.922288 0.871254 0.590630 0.992252 0.937147 0.657790 0.994738 0.395825 0.033088 0.134252 0.110994 0.160923 0.085606 0.977724 0.970657 0.878527 0.837407 0.985429 0.629832 0.910061 0.800305 0.697634 0.961890 0.704421 0.727374 0.950759 0.869785 0.162777 0.402678 0.131384 0.127699 0.150318 0.202714 0.436940 0.113797 0.169512 0.147267 0.066137 0.183585 0.258366 0.950752 0.413462 0.442370 0.196713 0.204048 0.417271 0.144467 0.079374 0.083643 0.102468 0.429131 0.879928 0.924077 0.938842 0.960465 0.876500 0.875241 0.855403 0.923498 0.084440 0.847274 0.973866 0.938866 0.998870 0.727493 0.738749 0.718125 0.655540 0.234882 0.914335 0.926408 0.834696 0.477325 0.755049 0.759236 0.323958 0.387074 0.370728 0.522639 0.236101 0.969108 0.265860 0.143513 0.052628 0.034288 0.060990 0.059850 0.483339 0.334409 0.886407 0.865759 0.929344 0.838313 0.985052 0.985611 0.983468 0.988662 0.987914 0.982820 0.967710 0.999912 0.993513 0.993743 0.974407 0.838327 0.994494 0.754059 0.892815 0.951286 0.834089 0.079817 0.785604 0.234344 0.749574 0.967435 0.355588 0.312857 0.685880 0.818302 0.204953 0.121659 0.971412 0.124840 0.070020 0.212710 0.256812 
0.002352 0.003813 0.000957 0.025452 0.328007 0.873772 0.999922 0.996688 0.717258 0.815127 0.692504 0.891876 0.928941 0.924521 0.895448 0.947070 0.962265 0.921617 0.937939 0.958890 0.958629 0.987457 0.002622 0.981840 0.106420 0.972205 0.989120 0.990897 0.260717 0.527811 0.989244 0.997053 0.998324 0.975172 0.988300 0.997388 0.930513 0.991886 0.147534 0.942931 0.987080 0.979409 0.370804 0.002026 0.967938 0.983277 0.999923 0.106135 0.984307 0.973679 0.038773 0.960701 0.964046 0.949012 0.941831 0.978926 0.984092 0.966503 0.968787 0.945217 0.940607 0.944474 0.999387 0.994813 0.978795 0.946674 0.956592 0.982503 0.942288 0.960065 0.966420 0.991960 0.980888 0.992039 0.955771 0.891707 0.846330 0.670119 0.799273 0.944961 0.933094 0.981160 0.519140 0.912729 0.985803 0.891849 0.914277 0.979840 0.958337 0.965481 0.996890 0.931395 0.691292 0.904291 0.910378 0.974156 0.774464 0.965813 0.977485 0.788507 0.780974 0.935145 0.928050 0.937507 0.981026 0.978623 0.894800 0.990209 0.643883 0.893502 0.899566 0.960960 0.905715 0.903916 0.949133 0.948580 0.945367 0.976970 0.980654 0.994387 0.988971 0.995371 0.989473 0.990527 0.979198 0.543206 0.999666 0.996900 0.924490 0.252539 0.112500 0.751122 0.918054 0.662954 0.134642 0.120648 0.340533 0.335552 0.798710 0.734070 0.918540 0.891745 0.974042 0.991312 0.981747 0.985041 0.975895 0.785459 0.727293 0.585513 0.836015 0.963238 0.453568 0.174515 0.675960 0.852239 0.854037 0.900767 0.916529 0.937529 0.305107 0.827591 0.923988 0.306061 0.802092 0.810984 0.744930 0.173224 0.020418 0.530733 0.012261 0.008691 0.272489 0.275437 0.112755 0.588445 0.650705 0.954292 0.943739 0.603823 0.960984 0.601294 0.457101 0.092428 0.138075 0.153459 0.155326 0.287535 
0.597394 0.251628 0.697973 0.211955 0.980472 0.993681 0.866545 0.934968 0.741525 0.990272 0.542097 0.128158 0.737806 0.617705 0.419938 0.892113 0.039792 0.230832 0.026687 0.146882 0.151830 0.139084 0.297134 0.283637 0.650059 0.858753 0.607653 0.831925 0.756957 0.944238 0.897467 0.989973 0.831737 0.192216 0.970067 0.959748 0.988249 0.581950 0.729046 0.986863 0.535844 0.153185 0.976777 0.974209 0.953681 0.832084 0.093328 0.707296 0.890094 0.650311 0.488501 0.422921 0.700047 0.627510 0.984749 0.665185 0.445607 0.990094 0.914323 0.638677 0.761233 0.959208 0.987979 0.996174 0.976786 0.971342 0.882321 0.907208 0.993900 0.927546 0.508576 0.872425 0.930116 0.913898 0.983345 0.976880 0.997989 0.997497 0.996880 0.841823 0.784094 0.684923 0.973491 0.990371 0.807055 0.955606 0.972373 0.960080 0.926750 0.848273 0.865212 0.682461 0.393979 0.673429 0.641312 0.335777 0.487341 0.755692 0.867979 0.747620 0.772062 0.967369 0.602497 0.934238 0.837691 0.952405 0.628951 0.885216 0.833539 0.538382 0.515820 0.947855 0.838888 0.948108 0.959866 0.986117 0.996902 0.980062 0.988570 0.989695 0.994101 0.996561 0.994159 0.996971 0.997441 0.997612 0.997514 0.988145 0.999674 0.997934 0.999870 0.997494 0.999247 0.992641 0.999853 0.984101 0.989098 0.995096 0.965787 0.996154 0.948416 0.971686 0.937586 0.989198 0.975175 0.975683 0.927376 0.985026 0.942734 0.988067 0.973986 0.976413 0.998353 0.996706 0.978490 0.985256 0.991175 0.996016 0.983363 0.990143 0.970675 0.988469 0.990777 0.967258 0.783382 0.980384 0.567086 0.832179 0.993960 0.993656 0.980731 0.977849 0.966853 0.944177 0.989487 0.992932 0.988545 0.980991 0.992911 0.993350 0.993204 0.955765 0.959227 0.998039 0.997297 0.998620 0.995488 0.996398 0.999836 0.999908 0.999212 0.999679 0.999656 0.999910 0.999935 0.999936 0.999523 0.999705 0.999887 0.999735 0.999624 0.995714 0.986930 0.940832 0.971890 0.999020 0.996507 0.994560 0.998664 0.924877 0.988148 0.991461 0.996726 0.972994 0.967182 0.957279 0.888313 0.879933 0.989073 0.979182 0.994014 0.991562 0.771164 0.980416 0.714886 0.158466 0.154501 0.990273 0.998575 0.698673 
0.824453 0.166777 0.752287 0.717042 0.896756 0.694869 0.909544 0.831569 0.949710 0.873692 0.786266 0.820764 0.902435 0.862028 0.876782 0.765778 0.963415 0.826792 0.938874 0.919206 0.723320 0.628217 0.933790 0.855430 0.955949 0.830896 0.899121 0.651317 0.639814 0.763624 0.705492 0.898024 0.201754 0.168189 0.884225 0.161967 0.628985 0.774922 0.960710 0.994665 0.975229 0.998175 0.996063 0.995209 0.989307 0.972185 0.985236 0.989041 0.995295 0.992669 0.998039 0.999600 0.998577 0.996487 0.999615 0.998610 0.999257 0.997313 0.997137 0.997180 0.991836 0.994023 0.993324 0.980774 0.972554 0.998831 0.989193 0.988569 0.995825 0.998350 0.999486 0.942212 0.997877 0.999000 0.994011 0.997897 0.996341 0.983714 0.999105 0.998997 0.934419 0.998397 0.994075 0.720845 0.282197 0.465346 0.271254 0.720480 0.690917 0.546939 0.688147 0.484193 0.636806 0.379331 0.684368 0.733537 0.534153 0.748751 0.766707 0.884085 0.537070 0.981347 0.985526 0.987705 0.992782 0.996698 0.958433 0.966433 0.983296 0.997460 0.998489 0.996462 0.998348 0.987885 0.925893 0.896579 0.872498 0.973260 0.771136 0.918201 0.941222 0.842663 0.920821 0.409260 0.470189 0.512356 0.631693 0.417513 0.444043 0.513596 0.201412 0.469384 0.548127 0.270553 0.272033 0.769158 0.495338 0.956779 0.974069 0.968330 0.932522 0.990864 0.995407 0.988679 0.990372 0.998848 0.970749 0.912714 0.915735 0.998619 0.996038 0.987967 0.992977 0.993929 0.995737 0.998271 0.990762 0.996405 0.995411 0.997154 0.990923 0.999274 0.997353 0.999198 0.999095 0.996991 0.998300 0.999300 0.998469 0.994648 0.993118 0.974725 0.977772 0.945855 0.914313 0.820004 0.892563 0.476382 0.909213 0.862232 0.784113 0.802128 0.786780 0.716851 0.632508 0.743260 0.632076 0.888263 0.743503 0.890904 0.980668 0.927873 0.779436 0.978823 0.966766 0.974954 0.970844 0.971414 0.964204 0.987270 0.999156 0.991451 0.999291 0.998846 0.999818 0.999930 0.999847 0.998949 0.995465 0.997247 0.999241 0.999398 0.999191 0.996628 0.957106 0.987816 0.993371 0.799441 0.640688 0.311406 0.646882 0.921941 0.520527 0.745758 0.751668 0.858891 0.645530 0.766657 0.810560 0.685133 0.669394 0.780637 0.672657 0.884021 0.777818 0.900164 0.884355 0.946145 0.856003 0.948434 0.953721 0.856607 0.547598 0.952655 0.934039 0.921856 0.861580 0.926910 0.905488 0.321341 0.612787 0.948192 0.921453 
0.012176 0.044255 0.200045 0.068855 0.144892 0.034670 0.023501 0.004981 0.011720 0.040487 0.060013 0.029623 0.204654 0.322214 0.022556 0.047680 0.003054 0.300794 0.428436 0.465423 0.371934 0.939532 0.952447 0.306122 0.828892 0.954705 0.966849 0.740043 0.655977 0.626574 0.702360 0.920578 0.989655 0.400148 0.143301 0.789947 0.364084 0.457088 0.083214 0.365445 0.683432 0.504373 0.735757 0.604177 0.090645 0.880201 0.843789 0.839629 0.634127 0.665047 0.070667 0.205716 0.117795 0.093696 0.073637 0.201838 0.173152 0.704893 0.526539 0.231383 0.805785 0.918534 0.955381 0.527073 0.042895 0.011531 0.834777 0.446119 0.023956 0.086510 0.000925 0.000458 0.006099 0.647486 0.469001 0.449776 0.795118 0.590775 0.043589 0.064315 0.090515 0.076843 0.075664 0.274654 0.482687 0.150802 0.040015 0.402180 0.182769 0.427587 0.240141 0.028136 0.317246 0.144054 0.401235 0.108936 0.184017 0.129807 0.449421 0.097144 0.089723 0.125999 0.101211 0.083604 0.074230 0.124962 0.157423 0.021746 0.926084 0.999564 0.904371 0.970661 0.975368 0.974400 0.907214 0.845711 0.990874 0.963318 0.973545 0.995282 0.962927 0.485402 0.979043 0.999879 0.632508 0.729954 0.825993 0.350268 0.925993 0.622065 0.972196 0.957757 0.771061 0.594557 0.230207 0.905566 0.516501 0.727624 0.314898 0.110707 0.190540 0.038042 0.326370 0.238771 0.405947 0.065534 0.201968 0.048154 0.023851 0.746791 0.641933 0.993908 0.971729 0.325608 0.021795 0.538869 0.592316 0.119556 0.836219 0.044418 0.086182 0.424796 0.957788 0.955801 0.798408 0.941400 0.981170 0.891498 0.930293 0.318840 0.679295 0.786672 0.691445 0.508862 0.290542 0.148893 0.645878 0.946750 0.383745 0.944031 0.993952 0.996212 1.000000 0.978473 0.893261 0.999855 0.999924 0.983116 0.995226 0.940335 0.921895 0.573026 0.068920 0.006188 0.009910 0.016199 0.008194 0.002147 0.006083 0.518264 0.065450 0.518942 0.117033 0.340353 0.615698 0.801743 0.180845 0.602755 0.090922 0.216315 0.175353 0.684857 0.677013 0.064301 0.754206 0.180674 0.192250 0.096389 0.368355 0.499283 0.455496 0.626162 0.089727 0.039995 0.482823 
0.796858 0.956173 0.947076 0.816788 0.496762 0.327314 0.637802 0.374757 0.901294 0.825032 0.872388 0.963169 0.107636 0.971151 0.935476 0.883557 0.837181 0.448875 0.267375 0.291350 0.021492 0.211326 0.051110 0.188562 0.121977 0.025733 0.018039 0.052408 0.024659 0.166640 0.035900 0.034020 0.077137 0.028094 0.010960 0.293836 0.030227 0.006766 0.028442 0.181222 0.002787 0.001630 0.056506 0.141731 0.010919 0.092306 0.021236 0.071468 0.030588 0.066098 0.027253 0.286865 0.002482 0.033688 0.051490 0.005779 0.048143 0.004443 0.003849 0.279961 0.713153 0.367010 0.118128 0.044733 0.011310 0.114896 0.005973 0.008827 0.207442 0.011681 0.096523 0.011289 0.124343 0.205035 0.001890 0.026153 0.028320 0.019151 0.006421 0.019023 0.000862 0.002238 0.003249 0.942068 0.710874 0.957517 0.815048 0.984788 0.977672 
0.005474 0.003393 0.002306 0.125619 0.999137 0.868712 0.149131 0.062747 0.219612 0.572083 0.062511 0.003438 0.000506 0.970176 0.967330 0.963809 0.205762 0.115101 0.077372 0.420610 0.809249 0.999999 0.995851 0.999979 0.999995 1.000000 1.000000 1.000000 1.000000 0.999937 0.960674 0.823197 0.447424 0.348386 0.580920 0.296581 0.179638 0.221944 0.267393 0.065441 0.226118 0.285742 0.210429 0.139731 0.260526 0.330763 0.262331 0.283778 0.334818 0.350704 0.023754 0.414320 0.023506 0.161436 0.113993 0.738805 0.471691 0.994705 0.992304 0.999493 0.866291 0.685523 0.894704 0.537857 0.185132 0.003146 0.088371 0.224877 0.975735 0.995434 0.869991 0.842757 0.702543 0.443538 0.751133 0.960650 0.877039 0.885916 0.294175 0.227759 0.989233 0.998797 0.999689 0.949803 0.999812 0.999965 0.939649 0.994300 0.999907 0.998726 0.978506 0.983083 0.997211 0.430172 0.714884 0.965868 0.884226 0.901207 0.135004 0.854720 0.755765 0.891466 0.922940 0.999694 0.999373 0.981499 0.800792 0.416760 0.229927 0.272833 0.055857 0.164341 0.035159 0.026653 0.968246 0.848131 0.972450 0.999959 0.989073 0.999997 0.999957 0.999908 0.969271 0.940956 0.847243 0.508213 0.971250 0.892639 0.848803 0.896168 0.065079 0.814587 0.995068 0.916940 0.949298 0.901001 0.254550 0.457677 0.343240 0.679146 0.932871 0.990929 0.982059 0.982348 0.940925 0.983028 0.995564 0.998111 0.999945 0.462078 0.022564 0.260072 0.384835 0.796756 0.731488 0.991567 0.999964 0.982198 0.935889 0.894771 0.925741 0.817194 0.337008 0.124801 0.065846 0.169652 0.108558 0.299979 0.400918 0.998355 0.992289 0.832650 0.832111 0.994663 0.978254 0.887041 0.909840 0.992949 0.999901 0.999856 0.999668 0.999550 0.884284 0.999802 0.999290 0.968841 0.992485 0.999779 
1.000000 0.999792 0.999728 0.999898 0.999587 0.998343 0.995448 0.962497 0.995926 0.981026 0.998302 0.976626 0.991359 0.800663 0.800619 0.910471 0.999385 0.999862 0.999724 0.999979 0.999982 0.999999 0.999975 0.999995 0.999986 1.000000 1.000000 0.999999 0.999996 0.999998 0.999966 0.999993 0.999991 0.999998 0.999948 0.999825 0.979652 0.991490 0.977582 0.998747 0.998204 0.995281 0.998590 0.997574 0.993701 0.999288 0.997614 0.997783 0.998964 0.998631 0.997437 0.991111 0.995464 0.970658 0.986027 0.987698 0.991128 0.999394 0.999883 0.999653 0.997942 0.999477 0.999962 0.999877 0.999812 0.999816 0.999301 0.999977 0.999986 0.999918 0.999435 0.999913 0.999826 0.999977 0.999967 0.999787 0.999617 0.999964 0.999974 0.997944 0.991544 0.996980 0.996819 0.999596 0.993859 0.997137 0.998052 0.999361 0.998440 0.992741 0.996180 0.988970 0.997974 0.998389 0.999985 0.999226 0.999548 0.998043 0.993361 0.995739 0.999264 0.999592 0.999507 0.997713 0.998750 0.997907 0.999078 0.998432 0.999353 0.992712 0.995086 0.997822 0.998511 0.998853 0.999433 0.998542 0.997542 0.998102 0.997866 0.997333 0.996730 0.998261 0.997688 0.998378 0.999996 0.998755 0.995784 0.999217 0.999607 0.999662 0.999732 0.999702 0.996790 0.998884 0.999185 0.998943 0.998828 0.988196 0.999367 0.997213 0.998092 0.997801 0.990897 0.995657 0.995814 0.994686 0.993196 0.997911 0.999401 0.999304 0.999742 0.999010 0.999371 0.997039 0.992482 0.999272 0.999345 0.998930 0.999196 0.998618 0.999118 0.999891 0.999960 0.999867 0.999993 0.999968 0.999938 0.999629 0.999973 0.999919 0.999834 0.999773 0.999898 0.999968 0.999871 0.999919 0.999821 0.999901 0.997798 0.999261 0.999772 0.999858 0.999997 0.999997 0.999213 0.991036 0.999752 0.999900 0.999802 0.994800 0.998931 0.999951 0.998668 0.999504 0.999638 0.999643 0.997807 0.996978 0.999646 0.999196 0.998358 0.999717 0.997962 0.999995 0.985240 0.999831 
0.931655 0.809179 0.698990 0.970280 0.917728 0.871410 0.920309 0.976275 0.842499 0.990653 0.997281 0.990260 0.960087 0.990060 0.988644 0.979123 0.975899 0.990764 0.929195 0.925611 0.967419 0.999976 0.999524 0.999598 0.999848 0.994237 0.992396 0.963981 0.998860 0.997704 0.979068 0.996239 0.982451 0.967370 0.832424 0.987405 0.988989 0.994409 0.999273 0.998575 0.996171 0.998568 0.997590 0.980217 0.898297 0.981141 0.998757 0.992752 0.963731 0.960039 0.972693 0.999309 0.939522 0.970490 0.923662 0.878364 0.102582 0.030539 0.646112 0.219812 0.088971 0.052150 0.952858 0.963521 0.965840 0.574968 0.443248 0.187413 0.344368 0.017828 0.013302 0.991813 0.979250 0.971865 0.984918 0.760673 0.999417 0.926551 0.960489 0.936621 0.919652 0.969572 0.222953 0.715463 0.991825 0.999543 0.999124 0.977512 0.910565 0.978561 0.971081 0.994268 0.982949 0.971494 0.965082 0.886769 0.947986 0.992012 0.961570 0.986483 0.956518 0.956834 0.979223 0.371715 0.698177 0.950985 0.725865 0.402682 0.684499 0.764530 0.770781 0.774019 0.405845 0.627737 0.262359 0.923057 0.374879 0.828926 0.553382 0.407982 0.764829 0.071214 0.339640 0.638896 1.000000 0.999992 0.999884 0.999807 0.998129 0.994767 0.999439 0.999216 0.991659 0.936004 0.999642 0.999070 0.999132 0.997744 0.939076 0.800645 0.879381 0.401964 0.967612 0.963965 0.686754 0.361818 0.913406 0.635323 0.978482 0.948617 0.948685 0.895207 0.825702 0.748485 0.964390 0.931329 0.943774 0.782807 0.995074 0.994098 0.984105 0.988518 0.999193 0.987272 0.607005 0.918816 0.873670 0.793487 0.486245 0.315025 0.034221 0.884706 0.912895 0.422146 0.041195 0.895679 0.553716 0.971912 0.936187 0.986156 0.986786 0.987340 0.951185 0.938393 0.041262 0.997336 0.997638 0.988273 0.956881 0.995555 0.986991 0.946912 0.973538 0.831759 0.983760 0.987214 0.911476 0.975130 0.903990 0.982285 0.915258 0.785349 0.990122 0.585278 0.800928 0.950943 0.959006 0.946855 0.789102 
0.945281 0.997943 0.999847 0.988643 0.971561 0.971561 0.971561 0.971561 0.965645 0.918042 0.981895 0.979451 0.971047 0.988451 0.967596 0.998981 0.995501 0.984445 0.993709 0.994806 0.994240 0.997550 0.998156 0.997971 0.999581 0.999510 0.999355 0.999549 0.999676 0.999317 0.999696 0.999734 0.999847 0.999764 0.999631 0.999592 0.998414 0.999371 0.999059 0.999973 0.997579 0.992685 0.989044 0.980244 0.983121 0.978006 0.967718 0.908818 0.959986 0.513422 0.093909 0.890397 0.995550 0.860459 0.935947 0.943394 0.852753 0.963144 0.999124 0.998546 0.996448 0.997503 0.979270 0.988453 0.987791 0.956515 0.513423 0.997212 0.996598 0.995686 0.957133 0.994197 0.995152 0.989609 0.959616 0.990414 0.984444 0.986159 0.994318 0.996440 0.998204 0.998941 0.999505 0.999579 0.999809 0.999870 0.990135 0.989336 0.985113 0.993808 0.989106 0.989591 0.989328 0.995223 0.991192 0.993621 0.985254 0.990147 0.996774 0.995398 0.999089 0.998517 0.995444 0.974756 0.982960 0.998476 0.997928 0.996765 0.997470 0.995533 0.995596 0.996610 0.993775 0.999564 0.994007 0.992528 0.994744 0.994164 0.997439 0.998137 0.998991 0.999338 0.999647 0.999511 0.999670 0.999687 0.999886 0.999624 0.999642 0.999854 0.999108 0.999688 0.999909 0.999551 0.999504 0.999956 0.999248 0.999069 0.996308 0.996930 0.997813 0.997917 0.998173 0.998689 0.998739 0.998535 0.999369 0.998810 0.998834 0.993614 0.993266 0.995007 0.995202 0.998460 0.994701 0.995070 0.995066 0.994244 0.995034 0.999453 0.995779 0.988345 0.987918 0.990654 0.997039 0.995803 0.994252 0.895389 0.993588 0.963133 0.991400 0.976995 0.996118 0.996062 0.997198 0.987286 0.997928 0.901549 0.997080 0.997214 0.935980 0.998643 0.998242 0.999835 0.999360 0.999082 0.981456 0.999997 0.992495 0.971561 0.971561 0.971561 0.955145 0.996210 0.999717 0.993542 0.987145 0.980982 0.974351 0.999017 0.981190 0.996486 0.992129 0.954609 0.983454 0.991409 0.950493 0.996242 0.987573 0.976058 0.999434 0.994019 0.989674 0.980180 0.990556 0.995107 0.994337 0.992662 0.993387 0.995137 0.994945 0.997506 0.998118 0.997051 0.996475 0.998284 0.892245 0.971392 0.999062 0.998559 0.999081 0.999116 0.998933 0.999528 0.998573 0.996505 0.997332 0.985503 0.989993 0.999966 
0.967838 0.190951 0.956038 0.967292 0.307112 0.917960 0.343723 0.400524 0.312576 0.224473 0.500840 0.656093 0.945446 0.889151 0.988456 0.845128 0.333984 0.757208 0.978924 0.990183 0.988339 0.994837 0.793749 0.868261 0.474710 0.165399 0.966300 0.787648 0.709680 0.649877 0.515700 0.971394 0.867809 0.898349 0.946916 0.911209 0.957806 0.691528 0.924429 0.951674 0.746156 0.538515 0.232541 0.775336 0.372400 0.656777 0.885490 0.987669 0.459644 0.585017 0.917770 0.993684 0.998887 0.998478 0.999420 0.998888 0.997664 0.995423 0.988519 0.977665 0.981112 0.999380 0.993487 0.954945 0.919714 0.998182 0.947262 0.854325 0.807642 0.976360 0.364486 0.991879 0.984492 0.989564 0.614458 0.331175 0.142026 0.493125 0.027182 0.248965 0.204604 0.035392 0.869719 0.166795 0.086975 0.265870 0.060575 0.057786 0.287805 0.737354 0.449950 0.284717 0.224355 0.271732 0.360342 0.560322 0.622478 0.939116 0.892959 0.035728 0.540345 0.466413 0.012845 0.007148 0.677355 0.978963 0.407059 0.456904 0.024128 0.254489 0.566516 0.363215 0.204512 0.684166 0.215074 0.825635 0.825482 0.900893 0.992490 0.997846 0.999192 0.995954 0.995789 0.944658 0.992642 0.980447 0.987629 0.989473 0.978839 0.970593 0.975584 0.998322 0.957161 0.990280 0.961746 0.871011 0.384957 0.962927 0.523659 0.897653 0.868163 0.915577 0.469828 0.957834 0.978957 0.927446 0.726541 0.910342 0.978934 0.830180 0.754763 0.447849 0.904353 0.937857 0.989157 0.937042 0.898940 0.687633 0.773740 0.945360 0.899433 0.666238 0.896205 0.956572 0.983195 0.987974 0.972597 0.896571 0.881710 0.352274 0.967971 0.231881 0.975940 0.786562 0.844694 0.963343 0.236103 0.167580 0.765422 0.036581 0.050204 0.371787 0.295104 0.980489 0.864233 0.358112 0.927637 0.692341 0.956151 0.947364 0.926781 0.972657 0.866354 0.876471 0.941153 0.853099 0.985554 0.947044 0.996399 0.997311 0.999701 0.994266 0.998512 0.998527 0.973585 0.933644 0.896668 0.504178 0.897415 0.432602 0.702364 0.817503 0.006251 0.094250 0.405097 0.486927 0.644176 0.425632 0.936675 0.860161 0.494118 0.212275 
0.000362 0.131649 0.175527 0.013652 0.025988 0.006702 0.058745 0.014766 0.046327 0.051371 0.004249 0.001113 0.002127 0.005202 0.002597 0.003240 0.028944 0.038592 0.002153 0.008040 0.020392 0.378227 0.102505 0.011453 0.003525 0.012987 0.050947 0.257676 0.004132 0.013874 0.116172 0.446153 0.084327 0.056952 0.046398 0.074432 0.001201 0.001754 0.285350 0.058419 0.004895 0.014868 0.006946 0.124775 0.038280 0.120772 0.192450 0.007547 0.004638 0.102049 0.013364 0.014905 0.070455 0.021392 0.090956 0.123744 0.339356 0.418713 0.045653 0.174355 0.004635 0.003445 0.003428 0.014687 0.021537 0.412886 0.001529 0.006661 0.161600 0.088599 0.326851 0.034398 0.001549 0.484831 0.055376 0.093037 0.820373 0.300113 0.889499 0.733333 0.966832 0.651883 0.306385 0.897550 0.970672 0.925830 0.984801 0.260463 0.024071 0.007883 0.018061 0.100198 0.113150 0.026724 0.686237 0.022739 0.130363 0.500641 0.003163 0.123220 0.036692 0.124663 0.003197 0.002391 0.903721 0.003406 0.003048 0.169779 0.208053 0.240958 0.571544 0.669275 0.242664 0.823850 0.068041 0.108809 0.507712 0.559690 0.195236 0.134088 0.491108 0.104345 0.100843 0.641734 0.816682 0.965593 0.670489 0.192413 0.004149 0.068793 0.186938 0.908827 0.132678 0.063120 0.850278 0.454905 0.978235 0.973296 0.357877 0.225449 0.920529 0.057494 0.006272 0.270185 0.184342 0.218103 0.066256 0.510868 0.986004 0.851735 0.917110 0.967440 0.989743 0.932843 0.991994 0.977606 0.999134 0.993830 0.988032 0.992416 0.995779 0.978567 0.976405 0.964963 0.981815 0.960917 0.984215 0.953456 0.998773 0.865432 0.994991 0.923387 0.978704 0.837219 0.527827 0.395465 0.447705 0.979494 0.984324 0.952318 0.049079 0.000983 0.004847 0.001999 0.669363 0.927128 0.818924 0.979965 0.787463 0.798235 0.896529 0.857925 0.939197 0.823549 0.316384 0.768178 0.882864 0.575971 0.318013 0.563702 0.561735 0.032389 0.699990 0.354343 0.017384 0.005092 0.013276 0.078323 0.051891 0.034794 0.058234 0.046038 0.548061 
0.389393 0.741054 0.322053 0.696888 0.183476 0.205400 0.605752 0.540335 0.757443 0.884435 0.968748 0.996613 0.901290 0.999435 0.991690 0.956775 0.993967 0.914751 0.997900 0.945555 0.918230 0.955287 0.967118 0.919901 0.966041 0.984759 0.940780 0.931884 0.861926 0.848380 0.852960 0.693012 0.790220 0.806910 0.723384 0.585655 0.594784 0.328316 0.429138 0.477543 0.238961 0.454400 0.414917 0.323038 0.138216 0.583747 0.331059 0.379606 0.455883 0.414722 0.669437 0.684884 0.330925 0.090649 0.246438 0.438742 0.217951 0.176567 0.315428 0.154721 0.212791 0.107745 0.121877 0.350148 0.592406 0.742062 0.646338 0.658037 0.502765 0.537650 0.282098 0.833196 0.702504 0.616611 0.489058 0.156356 0.075319 0.154959 0.091445 0.189616 0.214267 0.193256 0.117640 0.120616 0.533224 0.167552 0.732464 0.849423 0.844564 0.864886 0.826800 0.818607 0.859570 0.804706 0.838119 0.685594 0.809759 0.827919 0.881683 0.873657 0.831079 0.925683 0.973547 0.560346 0.940778 0.747573 0.731260 0.921795 0.508434 0.703779 0.261827 0.848481 0.658724 0.622718 0.572193 0.861894 0.785593 0.463612 0.534093 0.605720 0.524011 0.406085 0.544188 0.474495 0.586004 0.840249 0.286906 0.299672 0.113662 0.151836 0.452225 0.538373 0.393186 0.173775 0.333727 0.510279 0.579239 0.892844 0.656252 0.586011 0.899187 0.538218 0.853863 0.521667 0.834616 0.883928 0.856038 0.651379 0.728624 0.692823 0.213749 0.438954 0.215304 0.425481 0.439455 0.826522 0.884935 0.907161 0.876115 0.881030 0.931804 0.928602 0.981369 0.966966 0.964777 0.945521 0.982577 0.965531 0.885427 0.893302 0.835168 0.902479 0.811987 0.921948 0.976117 0.725727 0.925224 0.817309 0.851685 0.728126 0.803068 0.950152 0.326419 0.790357 0.618444 0.875772 0.837399 0.281132 0.930210 0.473846 0.528267 0.879272 0.881615 0.912889 0.823844 0.784304 0.811289 0.921554 0.945445 0.890006 0.843284 0.623104 
0.000085 0.000006 0.000024 0.000008 0.000017 0.000022 0.000029 0.000142 0.000225 0.008223 0.078164 0.002502 0.002125 0.073402 0.019131 0.011409 0.387169 0.137806 0.000124 0.000161 0.000528 0.023300 0.000197 0.000056 0.000089 0.000108 0.000122 0.000150 0.000292 0.000011 0.000012 0.000093 0.000011 0.000007 0.000012 0.000059 0.000029 0.000014 0.000047 0.000044 0.000114 0.000380 0.000167 0.002800 0.981733 0.919623 0.954222 0.509810 0.693490 0.395078 0.392060 0.366029 0.826531 0.025446 0.008230 0.004007 0.001117 0.010737 0.031471 0.048677 0.004861 0.000331 0.000035 0.001933 0.000044 0.000211 0.001691 0.000244 0.000089 0.000570 0.000090 0.000177 0.000039 0.000041 0.000035 0.000031 0.000061 0.000095 0.000011 0.000028 0.000081 0.000201 0.000062 0.000403 0.006594 0.006193 0.000646 0.000266 0.001331 0.000251 0.001320 0.002833 0.211748 0.000080 0.000127 0.000073 0.000405 0.000078 0.000313 0.000393 0.000080 0.000117 0.000021 0.000032 0.000056 0.000208 0.000089 0.000518 0.000253 0.001502 0.008185 0.001630 0.000009 0.000006 0.000016 0.000078 0.000025 0.000131 0.000070 0.000028 0.000092 0.000309 0.000030 0.000030 0.083070 0.000014 0.000056 0.000365 0.370951 0.000026 0.000065 0.000068 0.000138 0.000051 0.000113 0.000113 0.000105 0.000077 0.000106 0.000110 0.000700 0.030317 0.853648 0.000526 0.018878 0.020439 0.007159 0.617522 0.009653 0.567902 0.952143 0.001811 0.000078 0.000020 0.000008 0.000535 0.000053 0.000119 0.000040 0.000426 0.000282 0.000059 0.000248 0.004379 0.000019 0.378711 0.000055 0.000045 0.001451 0.000039 0.000076 0.000202 0.000057 0.002059 0.000075 0.000039 0.000063 0.000204 0.000668 0.000304 0.000055 0.359797 0.000354 0.000140 0.000045 0.000172 0.000080 0.013453 0.000429 0.000031 0.000033 0.000380 0.134086 0.000217 0.000057 0.000046 0.000080 0.000201 0.000038 0.000036 0.000531 0.000040 0.000323 0.000097 0.000125 0.000022 0.001144 0.000051 
0.999987 1.000000 1.000000 0.999814 1.000000 1.000000 1.000000 1.000000 1.000000 1.000000 1.000000 1.000000 1.000000 0.992988 0.998689 0.999998 1.000000 0.999988 0.999999 1.000000 0.999663 0.999840 0.999894 0.997306 0.999996 1.000000 0.999459 0.992753 0.990044 0.978018 0.967812 0.959194 0.982495 0.976966 0.991243 0.983388 0.999982 1.000000 1.000000 1.000000 1.000000 1.000000 1.000000 1.000000 1.000000 1.000000 0.999998 1.000000 1.000000 1.000000 1.000000 0.999988 1.000000 1.000000 0.997010 0.994381 1.000000 1.000000 1.000000 1.000000 1.000000 1.000000 1.000000 1.000000 0.999975 1.000000 0.999945 1.000000 1.000000 1.000000 0.999943 0.999995 1.000000 1.000000 1.000000 1.000000 1.000000 1.000000 1.000000 1.000000 0.999999 1.000000 0.999944 0.999997 1.000000 1.000000 0.999918 0.934359 0.994831 0.999920 1.000000 0.984731 0.998624 0.908703 0.874428 0.691492 0.958403 0.909333 0.945355 0.990919 0.856443 0.939572 0.971013 0.995413 0.996674 0.977566 0.959283 0.998758 0.976848 1.000000 1.000000 1.000000 0.999998 0.999909 0.999995 0.999975 1.000000 1.000000 1.000000 1.000000 1.000000 1.000000 1.000000 0.999928 0.999997 1.000000 1.000000 1.000000 1.000000 1.000000 1.000000 1.000000 1.000000 1.000000 1.000000 1.000000 1.000000 1.000000 0.999999 1.000000 1.000000 1.000000 1.000000 1.000000 0.999962 1.000000 1.000000 1.000000 1.000000 1.000000 1.000000 1.000000 0.991614 0.999534 0.995344 0.916025 1.000000 0.999577 0.951827 0.999212 0.888497 0.998986 0.854425 0.999941 1.000000 1.000000 1.000000 1.000000 1.000000 1.000000 1.000000 0.999999 1.000000 1.000000 1.000000 1.000000 1.000000 1.000000 0.999999 1.000000 1.000000 0.999641 1.000000 1.000000 1.000000 1.000000 1.000000 1.000000 1.000000 1.000000 1.000000 0.999999 1.000000 1.000000 1.000000 1.000000 1.000000 1.000000 1.000000 1.000000 1.000000 1.000000 0.999999 0.999041 0.975728 0.995855 0.999938 0.999987 0.998971 0.913537 0.943752 0.995271 0.982444 1.000000 0.999999 0.992826 0.999903 1.000000 0.999853 0.999946 0.999610 0.999958 0.999261 0.999997 0.999999 1.000000 0.999992 0.999230 1.000000 1.000000 1.000000 1.000000 1.000000 0.999989 1.000000 0.998773 0.994323 0.996430 0.862420 0.956050 0.975856 0.867333 0.936664 0.954840 0.950534 0.925655 0.838282 0.972107 0.961166 0.970740 0.999349 0.999999 
0.987856 0.976052 0.992207 0.998907 0.999229 0.969880 0.998137 0.998139 0.999147 0.995632 0.995610 0.997804 0.998443 0.991929 0.994790 0.971388 0.988676 0.998967 0.992696 0.984397 0.987432 0.999536 0.999901 0.995909 0.967782 0.955231 0.022208 0.007318 0.011235 0.015075 0.016318 0.002558 0.012154 0.844093 0.986730 0.999783 0.991406 0.995383 0.949117 0.989538 0.996895 0.991867 0.487902 0.971188 0.976956 0.999829 0.980325 0.998546 0.985205 0.943957 0.375879 0.372303 0.935006 0.948123 0.837154 0.982693 0.997996 0.998588 0.999244 0.961747 0.925233 0.984157 0.958801 0.894164 0.956785 0.772081 0.836228 0.877176 0.969709 0.973578 0.507553 0.900084 0.914883 0.586652 0.986638 0.980374 0.966045 0.999920 0.990945 0.919480 0.877256 0.992541 0.963579 0.973400 0.987063 0.988046 0.986443 0.963402 0.938076 0.807485 0.970987 0.903535 0.984540 0.990785 0.988069 0.981318 0.994532 0.997988 0.999686 0.998737 0.996470 0.997482 0.981759 0.991191 0.973952 0.990490 0.975600 0.982163 0.985845 0.989553 0.999295 0.994413 0.840048 0.808799 0.844930 0.958782 0.967398 0.983467 0.995770 0.750083 0.914293 0.993950 0.994093 0.987828 0.793808 0.932159 0.986377 0.975325 0.974668 0.939087 0.871446 0.977669 0.984288 0.990411 0.998065 0.792990 0.907509 0.964808 0.925366 0.963824 0.929735 0.953400 0.967435 0.938206 0.990791 0.986694 0.870953 0.956521 0.955057 0.989295 0.975322 0.958870 0.817518 0.950523 0.980068 0.943142 0.721242 0.630790 0.972743 0.974947 0.998694 0.957758 0.978047 0.910231 0.922838 0.814057 0.905299 0.985497 0.997763 0.996283 0.995911 0.992978 0.994857 0.984182 0.993564 0.981266 0.993639 0.991720 0.993850 0.997662 0.979326 0.993864 0.960990 0.950971 0.969744 0.900075 0.998083 0.990188 0.997166 0.998130 0.974059 0.966206 0.969703 0.991185 0.966599 0.953344 0.989962 0.973795 0.976726 0.984655 0.969305 0.991436 0.995707 0.994029 0.965795 0.931560 0.926500 
0.466362 0.583466 0.953343 0.961110 0.599558 0.959591 0.954130 0.947959 0.900709 0.797210 0.026017 0.919826 0.962901 0.969112 0.625472 0.073124 0.299854 0.738409 0.991577 0.941312 0.845044 0.612258 0.850407 0.925338 0.944388 0.697054 0.796773 0.866796 0.820994 0.743547 0.955677 0.801221 0.468187 0.948034 0.911197 0.987586 0.951639 0.912600 0.488000 0.538994 0.408813 0.927492 0.970968 0.957994 0.969221 0.969334 0.751536 0.849259 0.622994 0.942485 0.923538 0.935790 0.993193 0.988886 0.973285 0.970289 0.983401 0.339401 0.999506 0.999028 0.626819 0.932986 0.740323 0.924530 0.914425 0.788675 0.969938 0.971786 0.961393 0.843406 0.249026 0.638357 0.936576 0.841620 0.833330 0.527867 0.808128 0.808019 0.799541 0.817036 0.627541 0.827663 0.907577 0.180037 0.677179 0.837328 0.763403 0.965544 0.900987 0.970473 0.922956 0.682629 0.621515 0.655730 0.306103 0.324078 0.542636 0.079085 0.653361 0.677243 0.781069 0.700729 0.517306 0.821456 0.804089 0.753048 0.957962 0.737417 0.944345 0.954303 0.972408 0.580631 0.553691 0.919435 0.931306 0.980499 0.959908 0.766687 0.937517 0.963155 0.932484 0.982530 0.969879 0.959769 0.962202 0.953990 0.966211 0.984803 0.973366 0.952589 0.997640 0.990459 0.026641 0.812545 0.972269 0.763761 0.785007 0.954498 0.954999 0.993203 0.980577 0.990845 0.991106 0.920057 0.574458 0.672246 0.462845 0.416978 0.423261 0.428731 0.460456 0.405031 0.153480 0.026487 0.971256 0.729546 0.930519 0.973945 0.941424 0.911047 0.903973 0.955957 0.932085 0.951873 0.910715 0.967113 0.566913 0.969905 0.991391 0.969017 0.959230 0.345370 0.801635 0.959154 0.983967 0.859099 0.423618 0.991173 0.885231 0.857836 0.959856 0.980049 0.884425 0.974901 0.965745 0.564458 0.711721 0.908413 0.971006 0.979001 0.939648 0.982805 0.957524 0.772542 0.959112 0.978907 0.981368 0.985394 0.955928 0.896687 0.965209 0.682973 0.655797 0.507509 0.634243 
0.990827 0.978757 0.997249 0.978274 0.999302 0.916199 0.996998 0.753248 0.993885 0.992635 0.986313 0.710009 0.911529 0.940913 0.670813 0.393950 0.114443 0.117825 0.407302 0.009594 0.068673 0.024718 0.018640 0.029876 0.023655 0.902547 0.959219 0.977868 0.693722 0.283858 0.950580 0.634053 0.878806 0.726489 0.935500 0.985725 0.933203 0.995843 0.976790 0.800392 0.997153 0.995721 0.995814 0.984017 0.897570 0.545634 0.996527 0.997404 0.999397 0.996929 0.995392 0.955861 0.935811 0.986145 0.993402 0.984763 0.973474 0.949387 0.998192 0.994851 0.998260 0.997042 0.998506 0.999452 0.977860 0.993235 0.997423 0.982192 0.977354 0.995862 0.911748 0.989407 0.990408 0.946579 0.871154 0.998860 0.925938 0.805291 0.973341 0.999861 0.999820 0.999701 0.999925 0.997980 0.993321 0.997224 0.997558 0.997694 0.995350 0.945906 0.974077 0.975430 0.998040 0.984014 0.942814 0.829735 0.895064 0.909937 0.039324 0.511208 0.195152 0.361351 0.558715 0.394773 0.184392 0.221577 0.040899 0.194216 0.990350 0.999041 0.997902 0.981617 0.998007 0.999610 0.993835 0.981502 0.997176 0.999832 0.999341 0.999935 0.999408 0.999868 0.995241 0.848311 0.996204 0.998796 0.988551 0.996463 0.999998 0.999999 0.999167 0.999782 0.999932 0.999952 0.999996 0.999957 0.999993 0.999990 0.999489 0.999900 0.999590 0.999815 0.999921 0.999886 0.999084 0.994771 0.999369 0.999728 0.995655 0.999972 0.999886 0.999975 0.996608 0.980692 0.999783 0.998831 0.977233 0.999831 0.998055 0.993308 0.983321 0.989045 0.985570 0.996017 0.998663 0.994418 0.998534 0.999927 0.997704 0.999951 0.998229 0.913437 0.995008 0.962409 0.998539 0.999512 0.998703 0.997370 0.999027 0.997097 0.999904 0.995954 0.998956 0.999441 0.998706 0.999698 0.993110 0.999891 0.995966 0.984285 0.999317 0.998583 0.998909 0.990045 0.993242 0.991378 0.997839 0.999549 0.999696 0.971888 0.987717 0.994693 0.974981 0.999543 0.996911 0.997700 0.990204 0.999118 0.975453 0.999572 0.996053 0.987222 0.998150 0.989541 0.995946 0.963234 0.990124 0.999603 0.986785 0.997609 0.983355 0.999995 
0.988958 0.953297 0.983437 0.529089 0.757028 0.869217 0.936638 0.978834 0.658260 0.727227 0.385471 0.757731 0.405495 0.592768 0.692382 0.763543 0.424037 0.915512 0.994259 0.992697 0.997951 0.954620 0.974997 0.963358 0.959749 0.987491 0.890639 0.931686 0.991704 0.984277 0.963618 0.970721 0.999043 0.999807 0.998050 0.997234 0.999150 0.999766 0.998280 0.999258 0.999107 0.999265 0.999108 0.999439 0.999824 0.999955 0.994062 0.994314 0.997911 0.999810 0.999548 0.999539 0.997887 0.998879 0.998343 0.989934 0.992164 0.999898 0.996735 0.999165 0.999521 0.998975 0.999713 0.998673 0.995016 0.998521 0.986515 0.915904 0.995834 0.810777 0.992578 0.991689 0.997899 0.998217 0.999887 0.999249 0.994222 0.997234 0.990525 0.998176 0.994360 0.998314 0.998388 0.999249 0.999301 0.999413 0.998319 0.997716 0.999836 0.999549 0.993833 0.987896 0.996548 0.989529 0.989174 0.989761 0.990683 0.995451 0.999635 0.991696 0.988385 0.998678 0.974293 0.995196 0.996722 0.990381 0.989917 0.983689 0.994131 0.993003 0.991787 0.997662 0.965401 0.957346 0.977798 0.989816 0.936780 0.987674 0.976784 0.792948 0.834638 0.909674 0.986902 0.890418 0.974375 0.996403 0.985102 0.993383 0.958326 0.989587 0.962532 0.987200 0.902278 0.992088 0.983877 0.985389 0.941203 0.970044 0.994210 0.991588 0.998565 0.999654 0.997537 0.998863 0.999273 0.999458 0.998220 0.999352 0.998100 0.997472 0.993467 0.994178 0.998864 0.994190 0.962869 0.978009 0.963478 0.993966 0.964727 0.956226 0.978496 0.978979 0.987533 0.998063 0.982919 0.972808 0.986418 0.981988 0.988813 0.938305 0.931226 0.986219 0.990435 0.995826 0.966503 0.923565 0.995446 0.992721 0.959990 0.988944 0.989299 0.999592 0.984649 0.991770 0.992813 0.923213 0.991642 0.980977 0.998396 0.997830 0.999521 0.954151 0.991211 0.995893 0.995497 0.965059 0.993000 0.991051 0.994310 0.983749 0.992283 0.802723 0.981427 0.855789 0.996243 0.999035 0.997428 0.999563 0.999139 0.999515 0.999856 0.750421 0.980744 0.627224 
0.925979 0.954337 0.776425 0.971620 0.601557 0.948749 0.397937 0.915703 0.215436 0.508024 0.805047 0.259959 0.483064 0.360337 0.525234 0.124979 0.319996 0.933814 0.953103 0.655405 0.949437 0.955435 0.805371 0.842824 0.902756 0.873639 0.899740 0.138143 0.175433 0.793359 0.999638 0.975881 0.904175 0.913070 0.926863 0.184195 0.940220 0.806523 0.978898 0.824559 0.954546 0.877304 0.808545 0.432421 0.893106 0.616823 0.949710 0.118239 0.241594 0.048960 0.254746 0.929211 0.584180 0.534011 0.087126 0.111022 0.206663 0.932422 0.488494 0.858830 0.662827 0.677891 0.942145 0.811466 0.938873 0.694212 0.357790 0.761807 0.877391 0.625270 0.128221 0.881410 0.791759 0.875606 0.977100 0.969089 0.983307 0.669513 0.821685 0.776892 0.613919 0.837669 0.607904 0.331133 0.934465 0.973618 0.989350 0.997735 0.994851 0.967048 0.970179 0.160555 0.601077 0.293666 0.487125 0.929807 0.795450 0.544627 0.614528 0.612035 0.227926 0.179637 0.404526 0.111481 0.154165 0.537960 0.036332 0.165087 0.690284 0.045229 0.513467 0.928978 0.824962 0.612856 0.409530 0.985444 0.904168 0.863136 0.975243 0.978258 0.958997 0.965079 0.993520 0.986510 0.764466 0.020674 0.007565 0.072571 0.513533 0.239366 0.073633 0.035955 0.057026 0.032836 0.078354 0.165490 0.944436 0.776508 0.972218 0.969017 0.873612 0.828115 0.942563 0.979557 0.986126 0.992559 0.970210 0.990463 0.975837 0.792956 0.538634 0.961021 0.669697 0.494814 0.896884 0.908989 0.681746 0.821001 0.704146 0.155311 0.572614 0.841481 0.877945 0.406034 0.716341 0.793960 0.154247 0.833974 0.688764 0.231212 0.024018 0.286559 0.064010 0.197251 0.033013 0.475176 0.181447 0.444983 0.535479 0.574235 0.694241 0.619189 0.938147 0.942508 0.967390 0.994340 0.995301 0.999951 0.999680 0.997038 0.999697 0.931549 0.807393 0.620343 0.609888 0.953119 0.918748 0.269661 0.861912 0.771954 0.940802 0.280140 0.574077 0.798002 0.213608 0.166173 0.114820 0.953940 0.497937 0.577836 0.838844 0.878629 0.836257 0.883553 0.260358 0.948604 0.163464 0.871726 0.802349 0.951853 0.951853 
0.011518 0.323626 0.701169 0.509650 0.878946 0.981641 0.123480 0.167015 0.254978 0.013295 0.998458 0.997301 0.997636 0.991390 0.990547 0.951978 0.958275 0.975449 0.778315 0.920676 0.967394 0.967393 0.979582 0.950339 0.994202 0.995944 0.999860 0.999996 0.999999 0.999987 0.999847 0.999993 0.999513 0.999998 0.999950 0.999921 0.999998 0.999985 0.999984 0.999952 0.999997 0.999924 0.999833 0.997843 0.999521 0.990284 0.991936 0.990441 0.998190 0.991521 0.966198 0.994292 0.965839 0.993126 0.973533 0.920035 0.930455 0.925725 0.907976 0.993025 0.950367 0.991145 0.982879 0.978078 0.974255 0.997957 0.974001 0.989911 0.999520 0.999205 0.999647 0.998731 0.990327 0.990983 0.997226 0.998633 0.981956 0.978012 0.966419 0.985337 0.005001 0.955658 0.999551 0.999902 0.995071 0.959265 0.942219 0.944778 0.933078 0.959450 0.983516 0.975764 0.987140 0.994727 0.994405 0.986886 0.995697 0.999075 0.996858 0.988405 0.997603 0.982408 0.999684 0.998994 0.999682 0.999954 0.998625 0.999961 0.999981 0.999995 0.999343 0.999213 0.999775 0.999967 0.999998 0.999993 0.999925 0.999996 0.998339 0.998727 0.999465 0.999101 0.998083 0.999772 0.999984 0.999995 1.000000 0.999999 0.999989 0.998196 0.999934 0.996051 0.999215 0.994729 0.992325 0.998343 0.161752 0.993455 0.995561 0.999005 0.998602 0.999125 0.999537 0.999822 0.992667 0.997361 0.997921 0.984831 0.993933 0.990636 0.969842 0.932670 0.994561 0.994183 0.990068 0.997148 0.999984 0.999997 0.999976 0.999986 0.999997 0.999997 0.999884 0.998201 0.999290 0.999929 0.999334 0.999995 0.999995 0.999998 0.999976 0.999374 0.991514 0.997447 0.998723 0.995223 0.996690 0.995029 0.998300 0.999442 0.999517 0.997368 0.998037 0.995433 0.998885 0.995544 0.995146 0.998062 0.999662 0.994993 0.996707 0.997127 0.998157 0.999500 0.999048 0.998998 0.995624 0.998623 0.998440 0.998237 0.997223 0.999055 0.999948 0.999633 0.999923 0.999796 0.999997 0.999767 0.999422 0.999470 0.999761 0.999828 0.988973 0.994004 0.999160 0.999751 0.996334 0.999694 0.999923 0.997263 0.999888 0.998396 0.997151 
0.999968 0.993110 0.879485 0.522372 0.998394 0.835432 0.110819 0.124801 0.618165 0.802406 0.367252 0.474744 0.050364 0.047211 0.057026 0.900945 0.460609 0.999705 1.000000 1.000000 0.625717 0.701739 0.045039 0.947157 0.054465 1.000000 0.955435 0.072533 0.104545 0.093087 0.035188 0.085064 0.137740 0.179928 0.015076 0.948692 0.987977 0.166918 0.138517 0.347856 0.071598 0.236379 0.409275 0.139048 0.280420 0.697501 0.230482 0.154814 0.112543 0.073197 0.072131 0.061788 0.326961 0.436568 0.259888 0.305208 0.444165 0.258523 0.153956 0.645784 0.015997 0.471271 0.293500 0.073966 0.192342 0.403237 0.539676 0.672222 0.192923 0.108242 0.202879 0.460378 0.496275 0.516164 0.090357 0.325153 0.034854 0.305542 0.118624 0.167542 0.831445 0.430394 0.487080 0.467478 0.831401 0.784236 0.683455 0.600150 0.634061 0.457353 0.420043 0.113864 0.160714 0.071936 0.359131 0.105577 0.297554 0.504153 0.530709 0.195106 0.125964 0.308417 0.488065 0.614190 0.202909 0.213590 0.316760 0.020177 0.141778 0.211157 0.528821 0.129641 0.169356 0.723600 0.221150 0.633537 0.891981 0.922937 0.955913 0.684834 0.960633 0.796245 0.743293 0.880260 0.848324 0.680700 0.806988 0.997540 0.744051 0.995778 0.698160 0.779487 0.654394 0.788805 0.995191 0.190033 0.371160 0.496054 0.021478 0.209604 0.663896 0.999382 0.984641 0.909781 0.321602 0.955947 0.064888 0.772513 0.382361 0.602544 0.417132 0.351848 0.794432 0.556226 0.970926 0.952222 0.879055 0.948044 0.986235 0.548084 0.819636 0.779196 0.987186 0.745421 0.985645 0.775906 0.993663 0.675443 0.988722 0.768264 0.942675 0.916494 0.948816 0.847906 0.905682 0.950580 0.870319 0.978568 0.996403 0.642587 0.969225 0.369655 0.999191 0.999759 0.960553 0.758561 0.168532 0.046525 0.223319 0.274946 0.691568 0.378808 0.165993 0.899006 0.542045 0.932868 0.954038 0.922600 0.461223 0.752940 0.349897 0.771143 0.539352 0.915070 0.497294 0.856806 0.981457 0.903576 0.966511 0.791095 0.981948 0.997602 0.932541 0.973059 0.866536 0.922002 0.920339 0.971256 0.994146 0.983422 0.976326 0.988730 0.995253 0.998499 0.985414 0.977786 0.983145 0.998963 0.145118 0.199753 0.601133 0.062738 0.683030 0.185320 0.152577 0.411050 0.064769 0.740368 0.055305 0.968627 0.999299 
0.623242 0.467280 0.992718 0.987910 0.991610 0.996065 0.998017 0.998498 0.946922 0.129205 0.302722 0.019629 0.379085 0.772004 0.261943 0.003624 0.005302 0.002603 0.002171 0.009250 0.000216 0.909747 0.994674 0.999960 0.936697 0.844682 0.862918 0.961717 0.749320 0.901893 0.918735 0.938623 0.723150 0.994532 0.995665 0.971368 0.981949 0.983764 0.998390 0.993380 0.999680 0.996162 0.978147 0.982820 0.985031 0.996320 0.984667 0.982800 0.995881 0.986581 0.968668 0.868733 0.989964 0.998199 0.985201 0.995749 0.984855 0.992322 0.997954 0.999765 0.995593 0.935189 0.959244 0.999710 0.986309 0.997986 0.980082 0.983549 0.998942 0.363905 0.952116 0.983729 0.996532 0.978234 0.986752 0.968187 0.756010 0.984609 0.995129 0.989046 0.999828 0.999987 0.999778 0.998908 0.899407 0.947412 0.877220 0.951704 0.811294 0.587190 0.454782 0.124245 0.015231 0.157900 0.270787 0.045114 0.006858 0.029618 0.004689 0.032305 0.076203 0.031047 0.001812 0.093570 0.043273 0.019229 0.036328 0.996517 0.999958 0.999793 0.999733 0.999328 0.999110 0.999169 0.999824 0.998324 0.999998 0.999025 0.996849 0.999749 0.999493 0.999477 0.997905 0.991437 0.984817 0.729121 0.306750 0.969905 0.907424 0.958470 0.874914 0.907815 0.767313 0.980888 0.993708 0.999821 0.920482 0.980963 0.962712 0.996709 0.993012 0.992269 0.989118 0.999379 0.990580 0.999610 0.814798 0.999335 0.999999 0.999522 0.999163 0.999809 0.998001 0.989841 0.999201 0.999100 0.999553 0.999876 0.999976 0.999994 0.999982 0.982188 0.995458 0.994022 0.993908 0.931482 0.262067 0.225745 0.161459 0.767366 0.858540 0.837312 0.946264 0.210469 0.521017 0.155606 0.972983 0.173020 0.501075 0.975949 0.995512 0.976400 0.999625 0.995133 0.956662 0.974694 0.483554 0.696144 0.998396 0.985768 0.952752 0.999982 0.998794 0.998987 0.998157 0.988685 0.994352 0.880898 0.732732 0.998258 0.998534 0.811470 0.975374 0.962434 0.963161 0.982943 0.986104 0.994738 0.841568 0.336240 
0.835827 0.893241 0.943928 0.069147 0.235377 0.042717 0.026253 0.129482 0.989780 0.931402 0.791814 0.337653 0.951476 0.947675 0.937211 0.997841 0.999793 0.997529 0.992460 0.986649 0.998358 0.976244 0.951321 0.999993 0.977412 0.897260 0.927725 0.904110 0.949610 0.764711 0.720610 0.453700 0.739574 0.478865 0.887236 0.927558 0.858733 0.999995 0.999435 0.999121 0.999968 0.999277 0.999966 0.890898 0.876112 0.991945 1.000000 0.996162 0.997443 0.999970 0.997909 0.997783 0.999882 0.999994 0.999995 1.000000 0.999991 0.999998 0.999995 0.999996 0.999943 0.994491 0.999051 0.996963 0.990786 0.999818 0.999768 0.997011 0.997194 0.999232 0.996658 0.993764 0.986018 0.999979 0.998761 0.999806 0.999893 0.998386 0.999213 0.999996 0.999987 0.999481 0.999935 0.999997 0.999964 0.999820 0.938653 0.951582 0.995275 0.984864 0.997432 0.990089 0.970504 0.999760 1.000000 1.000000 1.000000 0.999991 1.000000 1.000000 1.000000 1.000000 1.000000 1.000000 1.000000 1.000000 1.000000 1.000000 1.000000 1.000000 1.000000 0.999989 1.000000 1.000000 0.999998 1.000000 0.998703 1.000000 1.000000 1.000000 0.999975 1.000000 1.000000 1.000000 0.999999 1.000000 1.000000 0.999998 0.999314 0.996684 1.000000 0.999744 1.000000 0.999999 0.999974 0.999999 0.999998 1.000000 1.000000 1.000000 1.000000 1.000000 0.999994 0.999962 0.999961 0.980790 0.819779 0.979872 0.945848 0.985353 0.999117 0.999996 1.000000 1.000000 0.999978 0.999992 0.999558 0.999997 0.999999 0.999927 0.999807 0.999999 1.000000 0.994131 0.999996 0.999997 0.999995 0.999800 0.999946 1.000000 0.999845 1.000000 1.000000 1.000000 0.999992 0.999854 1.000000 1.000000 1.000000 1.000000 1.000000 0.999999 1.000000 1.000000 0.999997 0.999810 0.999995 0.999153 0.998993 0.998669 0.999997 1.000000 1.000000 1.000000 1.000000 1.000000 1.000000 0.999977 1.000000 1.000000 1.000000 1.000000 1.000000 1.000000 1.000000 1.000000 0.999964 0.999997 1.000000 0.998737 0.999999 1.000000 1.000000 1.000000 0.999719 0.999999 0.999863 0.999991 1.000000 0.999999 0.999954 0.987134 0.882066 0.999919 1.000000 1.000000 1.000000 1.000000 1.000000 1.000000 1.000000 0.999999 1.000000 1.000000 1.000000 0.999991 0.999994 0.999990 0.978403 0.983096 0.722796 
0.013566 0.000884 0.001728 0.297020 0.360517 0.080879 0.006095 0.431237 0.106776 0.025276 0.123168 0.010399 0.203520 0.023017 0.079143 0.460181 0.487697 0.596261 0.171397 0.176854 0.205247 0.243284 0.114908 0.329863 0.281473 0.193133 0.038725 0.026858 0.045803 0.060625 0.696405 0.133285 0.273363 0.237948 0.173168 0.201038 0.292557 0.018020 0.006090 0.002628 0.001271 0.000646 0.002624 0.000162 0.003775 0.019317 0.019882 0.005796 0.081212 0.398434 0.011484 0.191777 0.011113 0.007116 0.000798 0.000143 0.001338 0.001454 0.001199 0.000209 0.000733 0.002033 0.001543 0.000931 0.000787 0.003903 0.005511 0.125674 0.124340 0.019116 0.036974 0.158905 0.137917 0.140041 0.026892 0.050498 0.520580 0.056425 0.001657 0.000728 0.000063 0.000866 0.006288 0.002169 0.003466 0.016836 0.001906 0.001894 0.001932 0.000995 0.002609 0.002214 0.002197 0.017380 0.010712 0.298752 0.009277 0.013869 0.088614 0.228623 0.006438 0.011879 0.390538 0.012150 0.013420 0.071830 0.098392 0.052264 0.008797 0.002971 0.004492 0.000236 0.001856 0.001767 0.000018 0.000995 0.000052 0.000004 0.002507 0.003455 0.011810 0.000244 0.005864 0.003032 0.002341 0.098260 0.019855 0.051467 0.003811 0.044321 0.039006 0.047169 0.114220 0.028612 0.165712 0.025989 0.007878 0.000196 0.012924 0.031876 0.011220 0.097618 0.163663 0.086275 0.001502 0.009938 0.029651 0.043854 0.107044 0.020386 0.091706 0.069368 0.291687 0.055972 0.076767 0.129062 0.093150 0.261911 0.001994 0.036543 0.117577 0.217139 0.007040 0.029398 0.149929 0.024799 0.014857 0.540284 0.258152 0.393034 0.057991 0.005896 0.007138 0.004596 0.021820 0.000721 0.000282 0.011613 0.014011 0.002652 0.000210 0.004152 0.000941 0.000353 0.007403 0.001400 0.001808 0.006394 0.004020 0.023803 0.006255 0.072018 0.036702 0.116529 0.005620 0.010413 0.002159 0.002043 0.389454 0.272842 0.144713 0.241154 0.419441 0.373159 0.214277 0.246577 0.206017 0.223895 0.000892 0.004241 0.043051 0.002666 0.013029 0.010911 0.000187 0.003217 0.001981 0.052219 0.000283 
