0.219623 0.151873 0.141908 0.071842 0.022945 0.195101 0.079000 0.103295 0.309536 0.501937 0.322608 0.861633 0.991904 0.978445 0.954996 0.811561 0.531687 0.500379 0.594348 0.601176 0.721942 0.395838 0.089830 0.498981 0.165743 0.118306 0.654282 0.677536 0.820799 0.884908 0.236055 0.163825 0.455598 0.338059 0.200130 0.289372 0.048609 0.578140 0.158004 0.026619 0.215373 0.286296 0.471949 0.825050 0.489562 0.004933 0.258121 0.587633 0.415227 0.552982 0.287491 0.274615 0.483709 0.438799 0.241414 0.506011 0.562721 0.418535 0.093281 0.112946 0.406555 0.363472 0.543319 0.345022 0.835406 0.042864 0.017123 0.176321 0.501450 0.228613 0.596170 0.339177 0.392101 0.168382 0.401906 0.174071 0.193193 0.423469 0.192061 0.300153 0.495537 0.536068 0.784227 0.640093 0.649356 0.728705 0.809309 0.197001 0.245252 0.280663 0.572269 0.637738 0.536903 0.510193 0.654899 0.423372 0.492547 0.024308 0.378842 0.012738 0.465134 0.192525 0.305408 0.523526 0.697623 0.259829 0.100915 0.000253 0.001326 0.379731 0.440800 0.192174 0.024208 0.084397 0.518597 0.467839 0.562801 0.258521 0.475676 0.884936 0.376878 0.412140 0.758585 0.717621 0.333701 0.500689 0.371881 0.710285 0.383246 0.939394 0.980667 0.934724 0.916509 0.752528 0.727471 0.353259 0.363252 0.536212 0.818273 0.289535 0.568295 0.563705 0.344032 0.499083 0.525091 0.461526 0.906443 0.851335 0.538513 0.912212 0.910633 0.850640 0.000024 0.000010 0.000105 0.001304 0.014924 0.010431 0.003589 0.008874 
0.752256 0.712751 0.707828 0.720201 0.580548 0.963648 0.977050 0.957220 0.964665 0.994906 0.993616 0.982484 0.687874 0.961237 0.992133 0.993573 0.997087 0.960870 0.924134 0.926116 0.937650 0.938025 0.929428 0.983822 0.988307 0.977270 0.987668 0.890899 0.954545 0.976749 0.994960 0.984336 0.979302 0.994440 0.986434 0.988812 0.946683 0.985238 0.979439 0.949332 0.947177 0.975570 0.957020 0.942926 0.951435 0.944393 0.940806 0.951304 0.915803 0.940573 0.958285 0.952381 0.951483 0.963657 0.938015 0.926287 0.925642 0.922032 0.927472 0.872841 0.916942 0.983544 0.997059 0.995504 0.995579 0.993865 0.946662 0.970399 0.950636 0.929273 0.937872 0.969506 0.935142 0.955037 0.966023 0.982556 0.982496 0.987676 0.990287 0.990845 0.995229 0.997240 0.998086 0.997094 0.997732 0.994166 0.930498 0.981624 0.980146 0.981053 0.983497 0.994632 0.998635 0.997829 0.997686 0.996795 0.985300 0.990551 0.996992 0.998866 0.995930 0.968428 0.994143 0.995184 0.996777 0.998642 0.998341 0.974628 0.954520 0.942881 0.923157 0.940190 0.924474 0.932481 0.935523 0.938513 0.931808 0.936675 0.922907 0.948621 0.932128 0.934435 0.928528 0.925574 0.876853 0.908570 0.971155 0.985314 0.965918 0.954282 0.968973 0.975261 0.981038 0.984776 0.984107 0.988922 0.992490 0.937507 0.980190 0.961565 0.976349 0.921717 0.905340 0.986602 0.810131 0.881991 0.780204 0.845729 0.910626 0.895987 0.931450 0.942392 0.859491 0.853002 0.824809 0.930744 0.966056 0.945622 0.929091 0.927211 0.946219 0.919278 0.936403 0.923053 0.898514 0.959126 0.918488 0.913004 0.950318 0.899123 0.895239 0.824975 0.784730 0.874528 0.937135 0.933223 0.943419 0.953800 0.967526 0.965795 0.949809 0.975327 0.989243 0.985925 0.978734 0.993090 0.996592 0.998650 0.997513 0.993983 0.989051 0.993039 0.963960 0.938092 0.975126 0.981152 0.966136 0.964509 0.968071 0.966039 0.946290 0.951687 0.964535 0.937064 0.931352 0.933139 0.946087 0.960791 0.944872 0.939874 0.876344 0.905174 0.928818 
0.039668 0.986450 0.986668 0.997526 0.517160 0.993192 0.987759 0.979557 0.999396 0.970335 0.935188 0.968242 0.962486 0.912090 0.942001 0.975154 0.967499 0.998700 0.994948 0.469251 0.942634 0.980987 0.960238 0.947736 0.979776 0.956840 0.973292 0.986130 0.985421 0.985000 0.971783 0.985703 0.992391 0.981735 0.977029 0.973674 0.957563 0.996809 0.986517 0.991000 0.990173 0.969568 0.967209 0.974791 0.970851 0.998358 0.795330 0.850303 0.713241 0.853792 0.764207 0.798304 0.797965 0.740144 0.697992 0.999760 0.966304 0.988394 0.988036 0.989942 0.864677 0.810119 0.550396 0.625534 0.598207 0.578857 0.889899 0.631092 0.626554 0.575626 0.540788 0.599790 0.393209 0.462728 0.683027 0.862763 0.917407 0.857634 0.781631 0.657310 0.570211 0.690555 0.567792 0.495439 0.484233 0.660719 0.980298 0.750013 0.910007 0.487423 0.776190 0.948366 0.928539 0.759507 0.738621 0.565323 0.973714 0.769022 0.686808 0.631594 0.657846 0.606857 0.797507 0.548458 0.529032 0.444082 0.348942 0.201279 0.077581 0.106685 0.295048 0.955406 0.673099 0.805045 0.925318 0.844735 0.976195 0.795455 0.644643 0.736372 0.738905 0.943643 0.515130 0.520224 0.841153 0.934738 0.445073 0.915920 0.874932 0.802557 0.846154 0.807612 0.652376 0.843281 0.511070 0.835596 0.910974 0.838824 0.920668 0.983419 0.907426 0.865771 0.901990 0.963244 0.818541 0.875676 0.818409 0.803969 0.824842 0.826330 0.828623 0.848750 0.799868 0.770105 0.799079 0.828671 0.798975 0.778402 0.778033 0.795248 0.833008 0.681690 0.760628 0.968828 0.990931 0.905216 0.866369 0.981106 0.885997 0.953340 0.961646 0.973320 0.998822 0.961821 0.847738 0.997101 0.997897 0.993723 0.996229 0.992480 0.963082 0.995558 0.771803 0.911325 0.995876 0.876411 0.858810 0.989844 0.720610 0.707408 
0.998743 0.872824 0.780528 0.871721 0.708372 0.763876 0.782374 0.827527 0.830800 0.851913 0.828089 0.707596 0.690864 0.557217 0.548943 0.508460 0.546196 0.251220 0.057370 0.073374 0.146160 0.170354 0.359460 0.420123 0.438892 0.508460 0.508460 0.508460 0.526141 0.508460 0.159769 0.126731 0.129095 0.358343 0.411382 0.382953 0.089151 0.140629 0.111026 0.263883 0.256068 0.816583 0.590823 0.776004 0.993076 0.765025 0.508460 0.508460 0.508460 0.935682 0.398032 0.653459 0.593793 0.969851 0.493365 0.609835 0.663613 0.755154 0.844816 0.801439 0.596767 0.666417 0.867376 0.466728 0.783463 0.523024 0.705237 0.533906 0.543316 0.508460 0.555409 0.508460 0.508460 0.508460 0.223279 0.242844 0.326058 0.502520 0.508460 0.317004 0.508460 0.508460 0.183466 0.362108 0.467800 0.277125 0.508460 0.508460 0.358546 0.705881 0.508460 0.434005 0.508460 0.508460 0.429130 0.406153 0.501813 0.508460 0.407538 0.547310 0.314238 0.230403 0.150173 0.124404 0.216164 0.169234 0.459592 0.530338 0.467030 0.600468 0.131497 0.494462 0.261659 0.255228 0.068150 0.223433 0.348155 0.508460 0.508460 0.227752 0.374745 0.303400 0.597220 0.603995 0.157999 0.325282 0.515503 0.584527 0.560234 0.646989 0.541447 0.237685 0.508460 0.578978 0.513184 0.508460 0.462746 0.669572 0.508460 0.299681 0.322768 0.358444 0.314714 0.745822 0.547647 0.508460 0.508460 0.508460 0.627355 0.556958 0.508460 0.571361 0.517116 0.553833 0.670774 0.677118 0.831535 0.580456 0.487476 0.469559 0.703883 0.579080 0.711283 0.508460 0.508460 
0.225444 0.151386 0.180868 0.179047 0.167333 0.209264 0.235193 0.237796 0.222242 0.083603 0.209456 0.168920 0.115085 0.165458 0.158940 0.243551 0.516128 0.681556 0.313154 0.231548 0.158553 0.130960 0.175787 0.500687 0.113479 0.715592 0.645193 0.722003 0.688826 0.727068 0.757821 0.790889 0.718167 0.969061 0.875527 0.894512 0.652780 0.578860 0.613390 0.822024 0.527456 0.804537 0.573991 0.632759 0.634401 0.669170 0.721946 0.485252 0.630356 0.373216 0.255161 0.438423 0.291662 0.720728 0.536170 0.839319 0.748982 0.769835 0.863442 0.738709 0.688231 0.848999 0.798688 0.982542 0.607166 0.667632 0.692975 0.686014 0.643558 0.667984 0.378116 0.412316 0.512980 0.568562 0.385640 0.440884 0.274416 0.497067 0.501248 0.466725 0.535740 0.573235 0.461506 0.565197 0.624066 0.486521 0.417033 0.383692 0.385717 0.428118 0.945439 0.687906 0.512009 0.534285 0.622749 0.649538 0.649086 0.669828 0.819458 0.847059 0.658687 0.904173 0.885051 0.923541 0.662848 0.652960 0.718167 0.792980 0.958245 0.462169 0.291294 0.875275 0.971380 0.773190 0.716882 0.804139 0.558981 0.732074 0.881423 0.639820 0.821177 0.957889 0.910021 0.840839 0.875273 0.756656 0.712191 0.740694 0.856380 0.877045 0.765842 0.701594 0.818298 0.861077 0.906042 0.935247 0.946338 0.972003 0.963894 0.944309 0.584790 0.572652 0.648183 0.680178 0.634136 0.689930 0.600479 0.659845 0.551649 0.910862 0.744634 0.686783 0.800682 0.644194 0.614330 0.649718 0.678451 0.641372 0.778704 0.696255 0.601715 0.571633 0.798224 0.945848 0.940088 0.911502 0.913729 0.950930 0.919996 0.974139 0.979399 0.946060 0.967825 0.986101 0.986020 0.988500 0.982002 0.630116 0.564131 0.674198 0.610094 0.562288 0.615550 0.889714 0.651251 0.909006 0.597479 0.857771 0.893069 0.832227 0.893882 0.654844 
0.816601 0.793658 0.737930 0.600199 0.782940 0.655365 0.515340 0.543427 0.632170 0.489016 0.629204 0.517900 0.330747 0.616382 0.523815 0.611077 0.581181 0.557333 0.639925 0.556616 0.554648 0.573989 0.517763 0.683240 0.698992 0.617148 0.631741 0.634462 0.667080 0.527552 0.527552 0.544248 0.527552 0.527552 0.535400 0.527552 0.527552 0.536005 0.527552 0.527552 0.527552 0.530979 0.566410 0.662861 0.638389 0.644830 0.638102 0.637885 0.642938 0.659907 0.614643 0.611838 0.527552 0.530175 0.529793 0.580385 0.603530 0.527552 0.527552 0.557813 0.527552 0.428427 0.532095 0.548461 0.552316 0.417296 0.463435 0.594380 0.482876 0.654235 0.608268 0.719904 0.360168 0.561847 0.464180 0.443266 0.385122 0.404097 0.383098 0.355290 0.801271 0.706100 0.750221 0.671317 0.727746 0.716987 0.726977 0.670202 0.527552 0.636484 0.635710 0.532620 0.541017 0.527552 0.645617 0.686322 0.627749 0.786023 0.649553 0.733974 0.620497 0.671042 0.677613 0.692149 0.587961 0.703561 0.596144 0.682496 0.691441 0.642736 0.710264 0.731310 0.682146 0.530759 0.532653 0.592061 0.630293 0.632108 0.777036 0.527552 0.687610 0.699909 0.770550 0.829522 0.712654 0.698566 0.650140 0.645642 0.540340 0.522703 0.604025 0.566015 0.520527 0.490198 0.394180 0.467199 0.378511 0.438259 0.563765 0.567109 0.575232 0.560689 0.449536 0.529922 0.620309 0.727555 0.636373 0.556167 0.551050 0.527552 0.711361 0.715138 0.782929 0.794373 0.643097 0.849398 0.709292 0.748157 0.676917 0.770429 0.771784 0.820385 0.836077 0.777879 0.771198 0.807860 0.828973 0.732285 0.342891 0.656247 0.681316 0.557440 0.527552 0.652587 0.702297 0.551083 0.638444 0.590602 
0.463218 0.155944 0.227958 0.069679 0.208143 0.361361 0.271494 0.345714 0.302064 0.194819 0.549416 0.850492 0.359893 0.174094 0.115417 0.034453 0.625552 0.533361 0.012609 0.003816 0.138215 0.574252 0.204861 0.011634 0.146378 0.745153 0.889785 0.933019 0.889060 0.890167 0.939032 0.810502 0.918149 0.828730 0.893383 0.919642 0.830005 0.950431 0.853948 0.956041 0.903428 0.055788 0.044300 0.056693 0.056793 0.104139 0.022710 0.123620 0.103990 0.776488 0.163966 0.567523 0.463746 0.467520 0.770488 0.014795 0.011216 0.020651 0.011643 0.090078 0.538469 0.049367 0.092560 0.030300 0.017560 0.007125 0.106443 0.169380 0.133022 0.253884 0.014050 0.060304 0.021735 0.009354 0.099308 0.033272 0.015575 0.038044 0.050326 0.030325 0.003556 0.004813 0.007316 0.010772 0.011936 0.011375 0.004091 0.005304 0.007678 0.002132 0.001494 0.230335 0.089920 0.098106 0.067023 0.047171 0.292897 0.013057 0.018621 0.046114 0.034304 0.053059 0.101226 0.148267 0.112822 0.196291 0.076016 0.009602 0.064086 0.010275 0.044405 0.154203 0.110916 0.058157 0.179175 0.125344 0.157339 0.069686 0.377242 0.608802 0.318982 0.123590 0.140726 0.686847 0.267670 0.246661 0.373241 0.471587 0.792434 0.016771 0.005238 0.005910 0.006045 0.005799 0.006000 0.040223 0.008515 0.005606 0.014504 0.008907 0.025946 0.011027 0.011641 0.075876 0.022551 0.036647 0.013951 0.028818 0.009748 0.024268 0.037505 0.023329 0.017514 0.060822 0.026985 0.033882 0.048967 0.039723 0.232233 0.047140 0.248752 0.201607 0.250672 0.048049 0.134315 0.107669 0.239219 0.780209 0.239395 0.288670 0.303778 0.212918 
0.224892 0.262577 0.286077 0.835889 0.733250 0.722317 0.657894 0.964790 0.950411 0.895487 0.707893 0.863699 0.876432 0.759393 0.769556 0.829635 0.668993 0.756931 0.676321 0.732260 0.783015 0.720539 0.663654 0.746225 0.696698 0.893945 0.616089 0.786970 0.934357 0.732328 0.658842 0.752554 0.772087 0.815320 0.732260 0.744626 0.794937 0.725601 0.754432 0.647774 0.756301 0.728610 0.751769 0.792176 0.839751 0.747817 0.774156 0.853229 0.837810 0.704492 0.498063 0.933780 0.993699 0.887884 0.726384 0.710507 0.756252 0.682195 0.746225 0.786148 0.762916 0.752868 0.754588 0.727275 0.787956 0.699291 0.857094 0.620831 0.815254 0.801182 0.912260 0.948029 0.702999 0.809814 0.759701 0.742377 0.655520 0.737676 0.747499 0.830566 0.768359 0.705893 0.858659 0.586098 0.808179 0.623881 0.831134 0.753651 0.998099 0.991483 0.796170 0.828066 0.814325 0.760929 0.950172 0.937982 0.985347 0.829646 0.881449 0.833125 0.650077 0.838891 0.805343 0.677059 0.390196 0.683473 0.527323 0.654854 0.727609 0.997853 0.946998 0.810953 0.915670 0.929365 0.810303 0.842332 0.867590 0.781724 0.924314 0.801853 0.818558 0.798756 0.887914 0.796307 0.797597 0.820551 0.797534 0.846773 0.811444 0.808461 0.866926 0.809503 0.900778 0.850473 0.868378 0.813370 0.768232 0.557301 0.764285 0.861586 0.769706 0.911282 0.781724 0.910846 0.833475 0.867677 0.902104 0.701413 0.816943 0.808722 0.783444 0.776212 0.885238 0.965271 0.875881 0.884692 0.855566 0.978498 0.752711 0.786431 0.800780 0.807546 0.836233 0.895046 0.798349 0.811057 0.837957 0.734547 0.339483 0.538991 0.514131 0.771642 0.590486 0.440611 0.529976 0.815957 0.835540 0.819432 0.814009 0.654187 0.844372 0.849145 0.563407 0.628909 
0.894107 0.942670 0.941700 0.915598 0.920686 0.937547 0.863430 0.882980 0.780226 0.667914 0.871090 0.941428 0.659839 0.358558 0.288853 0.335533 0.268110 0.451569 0.326656 0.082858 0.054907 0.028135 0.028368 0.051770 0.055925 0.039653 0.057967 0.205353 0.164425 0.318824 0.281702 0.301572 0.406733 0.201187 0.381784 0.322191 0.617848 0.372871 0.498346 0.523448 0.180047 0.076424 0.458590 0.290875 0.517282 0.729514 0.729924 0.944137 0.889477 0.855174 0.904553 0.831816 0.599680 0.800929 0.755522 0.876068 0.876649 0.825735 0.906155 0.878545 0.823209 0.887299 0.810503 0.766823 0.939669 0.914778 0.857275 0.893801 0.817496 0.873561 0.903851 0.981515 0.917456 0.942606 0.796358 0.904673 0.736829 0.792599 0.749898 0.959865 0.781130 0.200705 0.836558 0.832618 0.890792 0.643742 0.686332 0.794127 0.729712 0.788480 0.647735 0.688087 0.706274 0.632012 0.647084 0.612629 0.693283 0.579217 0.492622 0.627943 0.546896 0.562545 0.711029 0.548535 0.627365 0.547005 0.763576 0.683421 0.581065 0.586770 0.501595 0.456143 0.737036 0.503260 0.655349 0.495125 0.650172 0.911190 0.555658 0.545525 0.640086 0.467672 0.445153 0.451012 0.480651 0.470052 0.477943 0.838462 0.515496 0.498032 0.783826 0.726161 0.598829 0.545398 0.598719 0.490751 0.523881 0.682097 0.601387 0.486523 0.459949 0.517356 0.559839 0.518431 0.504694 0.542981 0.533432 0.557396 0.492242 0.538136 0.514987 0.562438 0.691922 0.414360 0.516311 0.557452 0.543187 0.598135 0.477993 0.798544 0.533770 0.342327 0.477596 0.574226 0.471143 0.662820 0.496294 0.510963 0.539225 0.670953 0.518301 0.676617 0.335925 0.131781 0.661212 0.602517 0.584042 0.449703 0.530777 0.625199 0.660499 0.451160 0.658449 0.476737 0.627544 0.632501 0.529754 0.534655 
0.684713 0.690772 0.721539 0.658295 0.788340 0.815202 0.728133 0.740018 0.702024 0.804078 0.703065 0.824373 0.727564 0.867854 0.763747 0.893982 0.951496 0.815517 0.753846 0.797902 0.804485 0.753807 0.844442 0.820494 0.654600 0.806663 0.955017 0.817889 0.760813 0.802694 0.985538 0.993654 0.978937 0.883731 0.864563 0.879521 0.838028 0.798195 0.790096 0.828700 0.985851 0.669341 0.885344 0.603538 0.650183 0.721259 0.715266 0.690452 0.852236 0.845894 0.904207 0.698414 0.694191 0.650574 0.666265 0.678432 0.684652 0.766370 0.676981 0.722334 0.721255 0.663581 0.682337 0.606495 0.728469 0.711196 0.689463 0.727632 0.661538 0.642507 0.706883 0.773238 0.884525 0.731304 0.607419 0.666971 0.363268 0.720757 0.457145 0.300369 0.351705 0.825565 0.741574 0.734984 0.658276 0.637531 0.642316 0.631850 0.659956 0.638011 0.623161 0.506605 0.508491 0.819550 0.867361 0.881207 0.803981 0.889726 0.915798 0.906781 0.908331 0.886457 0.913840 0.919761 0.791185 0.802538 0.617428 0.373994 0.321170 0.921713 0.938995 0.031764 0.936114 0.937400 0.896878 0.895915 0.901777 0.938296 0.743645 0.850400 0.859830 0.783014 0.826569 0.615132 0.498852 0.514488 0.560574 0.458177 0.627672 0.742145 0.850550 0.860465 0.864129 0.840804 0.922884 0.928857 0.907493 0.811411 0.829645 0.856078 0.871679 0.921961 0.920402 0.736648 0.868602 0.840295 0.900703 0.855067 0.758609 0.931544 0.888597 0.930729 0.896772 0.920330 0.841363 0.934480 0.966769 0.781586 0.034398 0.007208 0.058532 0.114775 0.002747 0.482021 0.977845 0.929118 0.444902 0.338724 0.331457 0.619065 0.795058 0.981637 0.962796 0.882322 0.917769 0.871834 0.915395 0.866440 0.778415 0.868590 0.669397 0.805979 0.801024 0.865653 0.722567 0.867046 0.780887 0.819199 0.704731 0.764768 0.740400 
0.027438 0.052347 0.214978 0.996743 0.991898 0.999332 0.992708 0.998530 0.957012 0.606010 0.997460 0.999486 0.999692 0.999635 0.999949 0.999967 0.999937 0.999937 0.999544 0.999798 0.997034 0.998892 0.996726 0.997338 0.998404 0.434511 0.078004 0.350096 0.764857 0.962429 0.743046 0.951156 0.926265 0.547878 0.161969 0.961032 0.109557 0.109098 0.269973 0.174934 0.320561 0.321159 0.655364 0.782059 0.940599 0.797737 0.899174 0.785187 0.879933 0.716610 0.938348 0.743124 0.929836 0.939485 0.963807 0.955646 0.939894 0.891860 0.919211 0.831035 0.651393 0.855410 0.601151 0.996206 0.917831 0.859203 0.792578 0.903772 0.772356 0.975778 0.992190 0.973396 0.141559 0.970090 0.970431 0.984130 0.982767 0.995313 0.999035 0.999692 0.961829 0.976120 0.977869 0.664780 0.871296 0.804518 0.926266 0.898126 0.931593 0.947027 0.984769 0.996142 0.991276 0.999502 0.999225 0.999108 0.999653 0.988928 0.942859 0.983618 0.951218 0.983331 0.975869 0.998569 0.991911 0.938058 0.952252 0.983249 0.996771 0.997108 0.983853 0.996497 0.918459 0.963903 0.992348 0.997308 0.997468 0.998541 0.995977 0.998709 0.998103 0.999649 0.991598 0.998351 0.998298 0.999167 0.997132 0.995720 0.997642 0.972265 0.506886 0.840972 0.928294 0.997998 0.999052 0.994754 0.998985 0.958066 0.950445 0.556980 0.055080 0.810253 0.959575 0.995726 0.372829 0.987956 0.983312 0.883988 0.997153 0.991709 0.993605 0.960470 0.952588 0.951960 0.966177 0.957738 0.985693 0.972837 0.972849 0.983175 0.902347 0.983688 0.771452 0.958501 0.921007 0.944167 0.964179 0.981513 0.945802 0.933497 0.991564 0.846943 0.789084 0.978774 0.990081 0.930130 0.994318 0.940502 0.998218 0.891548 0.767084 0.819023 0.726188 0.603172 0.976543 0.913659 0.431466 
0.900506 0.152377 0.271334 0.145246 0.225684 0.307968 0.339175 0.365683 0.359219 0.402773 0.476345 0.219277 0.363228 0.351221 0.379474 0.464689 0.492292 0.553982 0.294763 0.201286 0.313948 0.243783 0.482435 0.405454 0.460448 0.490001 0.430329 0.729403 0.652110 0.597623 0.557347 0.468246 0.159358 0.148500 0.253925 0.277377 0.336910 0.318371 0.117358 0.148928 0.396713 0.157471 0.117291 0.096300 0.219767 0.371047 0.225956 0.658643 0.307143 0.551687 0.384626 0.688928 0.418776 0.478645 0.455333 0.687800 0.264569 0.410548 0.419492 0.437304 0.378262 0.626641 0.463765 0.531386 0.576211 0.558603 0.477340 0.530961 0.230606 0.562037 0.382307 0.406526 0.437729 0.431312 0.533009 0.637154 0.660564 0.371325 0.428843 0.261433 0.097355 0.534082 0.176370 0.272916 0.275369 0.446357 0.515867 0.611375 0.345791 0.473359 0.485730 0.415258 0.067938 0.271649 0.367881 0.691319 0.643899 0.673510 0.594016 0.436668 0.227977 0.193556 0.527643 0.128820 0.299064 0.222707 0.225374 0.217455 0.299350 0.338869 0.217083 0.449051 0.276679 0.456474 0.282547 0.286066 0.281809 0.334662 0.363387 0.485452 0.082002 0.211627 0.217834 0.309884 0.096906 0.181945 0.228311 0.412790 0.291585 0.277016 0.197466 0.308298 0.218960 0.211727 0.277171 0.315997 0.255533 0.215376 0.219018 0.118865 0.120653 0.138755 0.177806 0.256573 0.358258 0.505413 0.211225 0.209675 0.196417 0.667136 0.060288 0.286390 0.593909 0.543442 0.472235 0.553455 0.295580 0.455516 0.517187 0.499952 0.467243 0.578396 0.681485 0.907478 0.403104 0.508479 0.617500 0.775199 0.577565 0.751551 0.940488 0.842112 0.609223 0.633617 0.906346 0.480472 0.420875 0.559685 0.477118 0.463752 0.405675 0.451662 0.517152 0.544157 0.712842 0.452927 0.453988 0.932646 0.927878 0.560070 0.531934 
0.769150 0.205081 0.680761 0.616056 0.414656 0.482660 0.638258 0.643564 0.736862 0.817054 0.803088 0.705253 0.690781 0.754178 0.717383 0.402567 0.155162 0.746417 0.884309 0.768533 0.932266 0.894515 0.829885 0.900578 0.749310 0.938570 0.695185 0.686503 0.754462 0.783118 0.901117 0.898501 0.824981 0.796056 0.756483 0.795031 0.770333 0.925809 0.829284 0.760283 0.787026 0.902529 0.756563 0.895336 0.967223 0.754320 0.644003 0.603934 0.562607 0.713634 0.673145 0.717227 0.893448 0.690043 0.673230 0.717227 0.597308 0.674747 0.675504 0.815707 0.651008 0.720638 0.678942 0.539252 0.635783 0.462721 0.539779 0.847216 0.657688 0.575049 0.526660 0.405311 0.306313 0.279720 0.274692 0.248199 0.811331 0.989921 0.623258 0.873292 0.777244 0.850038 0.882492 0.752276 0.853997 0.463684 0.405222 0.637469 0.353324 0.833835 0.923147 0.927157 0.755861 0.769514 0.760409 0.786847 0.819823 0.790419 0.973739 0.713634 0.711434 0.765114 0.705333 0.686173 0.761778 0.443472 0.473794 0.289640 0.357128 0.395917 0.293451 0.274648 0.159553 0.279720 0.371744 0.337884 0.358570 0.387650 0.317241 0.341693 0.369678 0.326748 0.298218 0.821715 0.668741 0.590230 0.591760 0.945870 0.864246 0.859393 0.908619 0.810949 0.830759 0.915633 0.863340 0.761698 0.879770 0.941292 0.750748 0.838466 0.862116 0.774638 0.896262 0.811738 0.844091 0.822698 0.840752 0.778937 0.795768 0.809136 0.820918 0.775882 0.873309 0.930640 0.703335 0.745399 0.814934 0.849179 0.939877 0.819631 0.854375 0.960408 
0.099588 0.006632 0.001213 0.002212 0.008192 0.227667 0.032723 0.744976 0.876593 0.291774 0.007235 0.680335 0.870409 0.132194 0.070318 0.015932 0.059207 0.049453 0.401534 0.044807 0.502673 0.014496 0.001244 0.001849 0.013033 0.000630 0.045854 0.012016 0.007478 0.221711 0.435045 0.948962 0.175822 0.019404 0.973743 0.999620 0.999387 0.999365 0.999794 0.986396 0.980093 0.881156 0.892794 0.980376 0.953231 0.989694 0.977752 0.997276 0.008027 0.004527 0.124392 0.961031 0.883670 0.446376 0.194777 0.906202 0.947615 0.066345 0.277371 0.894267 0.243368 0.226216 0.248622 0.551824 0.792685 0.828714 0.072493 0.147486 0.767932 0.018954 0.023855 0.157454 0.137538 0.180206 0.562867 0.516608 0.376391 0.408708 0.403388 0.382693 0.633297 0.368340 0.365283 0.250600 0.657453 0.121919 0.415032 0.825142 0.087278 0.996576 0.942925 0.996503 0.995446 0.992790 0.996464 0.984639 0.913056 0.957089 0.950026 0.856567 0.916231 0.665523 0.711013 0.868679 0.745120 0.896165 0.867300 0.333310 0.327958 0.258348 0.337394 0.592081 0.671287 0.652294 0.756115 0.936693 0.545441 0.526106 0.664746 0.400410 0.607404 0.609333 0.679093 0.524826 0.566476 0.182567 0.547504 0.443050 0.538044 0.216604 0.023760 0.040835 0.001465 0.391163 0.748421 0.732802 0.276854 0.998200 0.998459 0.947435 0.958800 0.958655 0.873962 0.716156 0.956915 0.826230 0.965695 0.957035 0.924354 0.928791 0.979791 0.959350 0.963077 0.983822 0.976465 0.986199 0.636361 0.737581 0.784056 0.817002 0.784704 0.226142 0.238896 0.013133 0.374840 0.710991 
0.054800 0.085576 0.099916 0.143356 0.653381 0.174208 0.180756 0.260156 0.010226 0.148666 0.000506 0.010097 0.098911 0.047695 0.066931 0.193381 0.216867 0.609073 0.574321 0.045477 0.054174 0.087547 0.268688 0.500655 0.067621 0.122731 0.203779 0.324783 0.109456 0.036324 0.022773 0.107233 0.032859 0.015272 0.053804 0.097291 0.091458 0.075926 0.158609 0.365930 0.416868 0.320610 0.291979 0.105061 0.073115 0.002512 0.033886 0.546081 0.237430 0.134011 0.148297 0.105997 0.145043 0.090826 0.050682 0.035313 0.157221 0.568835 0.535679 0.072130 0.027034 0.020705 0.020193 0.016872 0.030390 0.010969 0.003795 0.005499 0.003403 0.009144 0.004641 0.001271 0.002346 0.001677 0.000276 0.058878 0.273037 0.221977 0.159728 0.258720 0.303106 0.223774 0.259147 0.160326 0.200271 0.145921 0.117540 0.150789 0.090766 0.025035 0.021922 0.009701 0.042940 0.482798 0.076863 0.022838 0.064614 0.029306 0.036474 0.029337 0.113097 0.025405 0.100168 0.037407 0.158427 0.302706 0.088852 0.103802 0.021862 0.029286 0.045786 0.338723 0.166270 0.198372 0.169348 0.476939 0.112796 0.090893 0.245054 0.337707 0.546081 0.540200 0.546081 0.547641 0.571633 0.537556 0.546081 0.522889 0.617214 0.496982 0.103926 0.037694 0.337122 0.413661 0.268646 0.359986 0.422989 0.606426 0.370897 0.481614 0.550803 0.251818 0.303732 0.536854 0.257160 0.321240 0.275692 0.368652 0.240814 0.281051 0.244902 0.211784 0.297501 0.252517 0.207243 0.273920 0.110069 0.023236 0.001045 0.003677 0.003883 0.004888 0.001354 0.001374 0.003153 0.001217 0.001348 0.002599 0.003065 0.002873 0.008728 0.132683 0.076003 0.084190 0.546081 0.524506 0.543615 0.084187 0.038605 0.082414 
0.392700 0.659952 0.749588 0.813432 0.857629 0.739395 0.775039 0.973226 0.917678 0.808723 0.919490 0.928887 0.937430 0.932226 0.929612 0.934164 0.900620 0.998160 0.903886 0.918725 0.962450 0.939968 0.907995 0.876055 0.913567 0.950576 0.866886 0.767005 0.806775 0.825280 0.820208 0.882631 0.876892 0.928560 0.781103 0.740131 0.863782 0.922425 0.757847 0.665189 0.797939 0.723526 0.900295 0.787760 0.910612 0.729796 0.898481 0.855444 0.764163 0.757219 0.671422 0.616581 0.600777 0.559437 0.699914 0.661174 0.699415 0.744022 0.689973 0.678447 0.729460 0.799303 0.699301 0.793595 0.830765 0.833200 0.822058 0.829383 0.806847 0.790977 0.811114 0.775258 0.765052 0.767282 0.754164 0.632833 0.708710 0.622073 0.551925 0.690036 0.490975 0.531534 0.577627 0.814137 0.809563 0.683641 0.777461 0.626023 0.630556 0.660901 0.642788 0.563318 0.594521 0.681401 0.748362 0.670342 0.738388 0.554260 0.690286 0.784972 0.797968 0.740560 0.690151 0.697907 0.739674 0.738000 0.742971 0.838249 0.821991 0.846214 0.818594 0.862944 0.859793 0.773407 0.798229 0.686065 0.595798 0.639826 0.647689 0.637866 0.790964 0.655649 0.578827 0.805151 0.746530 0.579039 0.623416 0.646823 0.647647 0.739967 0.689669 0.618917 0.636280 0.713832 0.611808 0.537842 0.617693 0.621115 0.611756 0.684864 0.639711 0.586262 0.742884 0.678179 0.741247 0.705538 0.693193 0.558312 0.745886 0.671332 0.757831 0.770981 0.716416 0.660981 0.666427 0.511188 0.598240 0.696889 0.731354 0.774627 0.559575 0.500988 0.694917 0.748164 0.690673 0.714158 0.766605 0.864680 0.742961 0.789330 0.697966 0.688286 0.829699 0.730479 0.807202 0.795802 0.727858 
0.999999 0.999998 0.999996 0.999996 0.999994 0.999998 0.999999 0.999999 0.999999 0.999999 0.999999 0.999997 0.999998 0.999998 0.999999 0.999999 0.999997 0.999998 1.000000 0.999997 0.999999 0.999999 0.999998 0.999999 0.999999 0.999999 0.999992 0.999998 1.000000 1.000000 0.999999 0.999998 0.999999 0.999999 0.999999 0.999996 0.999995 0.999997 0.999998 0.999997 0.999997 0.999995 0.999993 0.999977 0.999995 0.999996 0.999997 0.999998 0.999998 0.999997 0.999998 0.999998 0.999996 0.999995 0.999998 0.999998 0.999997 0.999999 0.999998 0.999997 0.999997 0.999999 0.999999 0.999997 0.999998 0.999997 0.999999 0.999998 0.999995 0.999997 0.999997 0.999998 0.999993 0.999994 0.999995 0.999993 0.999995 0.999995 0.999997 0.999998 0.999997 0.999996 0.999998 0.999998 0.999998 0.999998 0.999996 0.999999 0.999997 0.999992 0.999989 0.999988 0.999987 0.999993 0.999984 0.999987 0.999993 0.999995 0.999994 0.999997 0.999984 0.999980 0.999995 0.999995 0.999997 0.999992 0.999998 0.999997 0.999996 0.999996 0.999994 0.999998 0.999997 0.999997 0.999998 0.999999 0.999995 0.999983 0.999996 0.999996 0.999996 0.999992 0.999994 0.999996 0.999995 0.999998 0.999995 0.999997 0.999990 0.999990 0.999989 0.999998 0.999992 0.999992 0.999998 0.999996 0.999999 0.999997 0.999998 0.999994 0.999996 0.999996 0.999987 0.999996 0.999998 0.999996 0.999997 0.999998 0.999995 0.999993 0.999997 0.999995 0.999976 0.999993 0.999987 0.999989 0.999988 0.999996 0.999991 0.999972 0.999993 0.999992 0.999997 0.999995 0.999975 0.999990 0.999990 0.999988 0.999993 0.999992 0.999997 0.999997 0.999990 0.999996 
0.942122 0.990301 0.986609 0.971066 0.990404 0.905219 0.965400 0.966967 0.973065 0.893687 0.652164 0.759437 0.861485 0.662463 0.939120 0.972145 0.982583 0.959368 0.973711 0.984682 0.959730 0.982630 0.774494 0.889737 0.861806 0.738082 0.723441 0.788629 0.704483 0.536143 0.795837 0.733754 0.636522 0.966641 0.946580 0.993345 0.996897 0.995142 0.998061 0.995754 0.994642 0.987079 0.994633 0.988891 0.970543 0.993010 0.975282 0.977579 0.965314 0.992405 0.973253 0.933905 0.908347 0.899610 0.842914 0.873172 0.966985 0.984005 0.984840 0.978756 0.991960 0.993258 0.994079 0.983835 0.990284 0.997831 0.990426 0.995496 0.951693 0.974678 0.997291 0.997031 0.997234 0.998490 0.997501 0.996636 0.996641 0.985546 0.974332 0.984617 0.989885 0.960616 0.967140 0.915449 0.743268 0.737618 0.841029 0.935673 0.777841 0.932579 0.791709 0.965830 0.975865 0.986041 0.939647 0.963333 0.990634 0.993136 0.991801 0.980846 0.968084 0.990027 0.993106 0.994976 0.984924 0.958446 0.988406 0.995093 0.994570 0.987397 0.992604 0.979700 0.979780 0.989962 0.986348 0.991002 0.978869 0.984100 0.986290 0.983954 0.981894 0.992561 0.994084 0.999541 0.998215 0.988179 0.992164 0.996411 0.994621 0.999887 0.997785 0.990920 0.989477 0.985429 0.983646 0.997872 0.993504 0.985393 0.992375 0.997595 0.993731 0.989601 0.996951 0.999658 0.999009 0.999128 0.998536 0.992795 0.998249 0.996783 0.997744 0.996989 0.993035 0.987038 0.975963 0.978385 0.989032 0.959121 0.983956 0.965766 0.964929 0.980898 0.989071 0.980592 0.983245 0.991827 0.976254 0.984454 0.951038 0.985312 0.977937 0.976368 0.994695 0.998843 0.993964 0.997504 0.990580 0.994311 0.991070 0.994365 
0.993303 0.553157 0.567540 0.926409 0.545892 0.761001 0.849923 0.802383 0.890894 0.966159 0.958330 0.945867 0.988130 0.938900 0.941237 0.729743 0.824223 0.525693 0.412471 0.884224 0.961557 0.835660 0.871264 0.492300 0.604762 0.630396 0.648734 0.796502 0.679060 0.713726 0.956708 0.920011 0.846608 0.763909 0.940418 0.677644 0.859635 0.924962 0.969702 0.889241 0.636579 0.839268 0.504413 0.463079 0.518681 0.541516 0.615226 0.669343 0.673311 0.628313 0.552112 0.611972 0.617077 0.659338 0.617865 0.667987 0.734998 0.967362 0.899531 0.956940 0.926858 0.851494 0.957224 0.938665 0.938597 0.805889 0.889218 0.926485 0.953606 0.854074 0.914751 0.807048 0.869760 0.828203 0.695632 0.769066 0.971555 0.859564 0.874445 0.809502 0.861937 0.824718 0.871951 0.770576 0.655298 0.857892 0.847577 0.858829 0.798055 0.824740 0.871617 0.805211 0.804889 0.673201 0.884157 0.820384 0.865716 0.745619 0.971950 0.888435 0.946110 0.889420 0.922026 0.905424 0.915896 0.865245 0.800597 0.781601 0.922448 0.923657 0.930561 0.858568 0.822803 0.873637 0.883854 0.881112 0.863969 0.852837 0.941032 0.881597 0.834399 0.832667 0.894192 0.919296 0.867551 0.921019 0.856559 0.845571 0.924823 0.879949 0.913812 0.873274 0.849131 0.912292 0.852753 0.831094 0.890508 0.915933 0.869999 0.880573 0.924664 0.911170 0.850104 0.887050 0.893564 0.952732 0.883376 0.827175 0.844331 0.815231 0.866390 0.935609 0.904467 0.943776 0.851930 0.825313 0.917870 0.859128 0.870660 0.958960 0.931252 0.954795 0.946549 0.945160 0.883847 0.917374 0.910223 0.901045 0.903634 0.902116 0.862464 0.889863 0.866460 0.898178 0.885466 0.885871 0.900955 
0.943298 0.876746 0.865031 0.970700 0.931929 0.952192 0.955301 0.922813 0.892202 0.866790 0.900477 0.926814 0.959165 0.982063 0.985532 0.982555 0.972865 0.932706 0.786228 0.812152 0.785558 0.844975 0.948118 0.940500 0.986350 0.897497 0.967456 0.965970 0.967943 0.919237 0.921056 0.889846 0.888832 0.872041 0.909055 0.911579 0.929106 0.879233 0.966075 0.847056 0.938326 0.923285 0.915425 0.952151 0.968749 0.837421 0.606282 0.711083 0.660451 0.869610 0.843410 0.810299 0.728211 0.691608 0.641447 0.849936 0.903078 0.818264 0.903648 0.754870 0.811746 0.836719 0.892676 0.897671 0.905442 0.914174 0.871465 0.829678 0.859370 0.816297 0.816940 0.910849 0.872654 0.918976 0.869918 0.914055 0.866281 0.865095 0.891655 0.852703 0.827972 0.649194 0.877335 0.930830 0.861226 0.796455 0.860062 0.807380 0.867371 0.898790 0.897872 0.898597 0.938421 0.918097 0.762897 0.898242 0.895244 0.872665 0.923962 0.910605 0.877312 0.909480 0.889509 0.757235 0.921483 0.918187 0.910325 0.963320 0.931172 0.953313 0.945705 0.700403 0.915677 0.964488 0.681211 0.730259 0.754532 0.921528 0.944067 0.894221 0.945399 0.933733 0.946611 0.922870 0.932188 0.919030 0.927852 0.925444 0.915645 0.925606 0.945753 0.869909 0.845726 0.951411 0.866334 0.946620 0.964720 0.948674 0.938141 0.938757 0.955726 0.884194 0.502097 0.931028 0.939789 0.949256 0.920927 0.922905 0.925551 0.915910 0.954705 0.902611 0.895119 0.891352 0.873377 0.882751 0.887467 0.887295 0.886951 0.880782 0.890350 0.884518 0.891186 0.478494 0.582173 0.867371 0.845889 0.856755 0.867962 0.831611 0.339678 0.451317 0.788846 0.828948 0.812009 0.590081 0.797162 0.788416 0.910611 0.957259 0.965834 0.795071 0.862149 0.848115 0.858537 0.884693 0.753277 0.892181 0.921052 0.908913 0.871176 0.819930 0.878696 0.965584 0.952615 0.917613 0.910605 0.915777 0.908770 0.906757 0.906028 0.919913 0.912268 0.907192 0.921674 0.860919 0.920425 0.868355 0.890014 0.861432 0.866181 0.879331 0.869724 0.861022 0.860713 0.884693 
0.085089 0.006852 0.004220 0.007516 0.006727 0.016274 0.055186 0.011274 0.018095 0.014055 0.024572 0.196746 0.208003 0.567797 0.044241 0.505575 0.655843 0.667901 0.239923 0.649156 0.913373 0.977690 0.977745 0.995887 0.995338 0.996889 0.998470 0.996904 0.996900 0.989828 0.991420 0.996701 0.957920 0.965157 0.969867 0.985968 0.989980 0.997101 0.988084 0.994419 0.986443 0.978862 0.994919 0.983864 0.981615 0.962549 0.985181 0.946767 0.975664 0.996682 0.999311 0.999561 0.999626 0.983100 0.956232 0.781942 0.132656 0.210927 0.195756 0.283894 0.096136 0.125139 0.012269 0.003977 0.009659 0.030697 0.037140 0.051522 0.123243 0.016757 0.037879 0.217841 0.054319 0.567680 0.868613 0.737977 0.987263 0.965917 0.982759 0.985067 0.987668 0.948829 0.992566 0.982974 0.950192 0.961466 0.977156 0.989855 0.974458 0.960491 0.981367 0.070939 0.133868 0.059822 0.069722 0.959823 0.787125 0.059094 0.128775 0.885428 0.770735 0.822962 0.863855 0.721463 0.558476 0.849704 0.706097 0.970279 0.933661 0.968412 0.980197 0.990786 0.990945 0.931477 0.959642 0.985404 0.971710 0.827761 0.947612 0.808896 0.504894 0.854415 0.632773 0.095791 0.097743 0.828917 0.961149 0.950798 0.991918 0.993444 0.875405 0.689230 0.353897 0.027049 0.008972 0.014368 0.614231 0.034383 0.004733 0.004681 0.018161 0.031823 0.026182 0.028661 0.000553 0.000220 0.000188 0.000408 0.000195 0.000223 0.000217 0.001199 0.000176 0.001199 0.000390 0.000742 0.001687 0.001240 0.002093 0.003611 0.024173 0.418807 0.630041 0.062166 0.000083 0.110210 0.845870 0.906851 0.761872 0.744924 0.711440 
0.571668 0.732251 0.728818 0.953761 0.878609 0.981939 0.915000 0.941412 0.938119 0.899177 0.914744 0.962618 0.901150 0.937005 0.858980 0.849687 0.714382 0.937173 0.941233 0.805068 0.976675 0.916117 0.939740 0.924699 0.832428 0.928911 0.859439 0.913586 0.951013 0.908959 0.890272 0.860757 0.864187 0.914795 0.908484 0.944282 0.940749 0.937442 0.941973 0.950721 0.949189 0.827492 0.783056 0.809580 0.931309 0.876290 0.833035 0.779039 0.731598 0.882273 0.904276 0.965176 0.864006 0.704991 0.703718 0.689514 0.891321 0.920600 0.897799 0.934686 0.800190 0.736701 0.859007 0.878051 0.921818 0.896063 0.897721 0.813793 0.824019 0.951815 0.949976 0.957514 0.940281 0.995502 0.906038 0.940277 0.944387 0.925573 0.938005 0.950464 0.963164 0.800111 0.846795 0.910745 0.718114 0.377803 0.849256 0.730610 0.716551 0.406713 0.366563 0.292474 0.485764 0.800024 0.353219 0.649381 0.529502 0.596732 0.645693 0.468039 0.492641 0.658614 0.254075 0.689639 0.721859 0.831140 0.705773 0.843449 0.933788 0.970554 0.950831 0.978952 0.949926 0.906657 0.931750 0.896993 0.907224 0.974175 0.925934 0.938237 0.957757 0.960570 0.959832 0.928683 0.734848 0.903526 0.880452 0.913923 0.860419 0.862485 0.819006 0.870113 0.903518 0.924720 0.941613 0.955770 0.814504 0.687160 0.742712 0.895573 0.621011 0.902169 0.757079 0.760161 0.698208 0.833491 0.819651 0.927873 0.959676 0.923332 0.919467 0.888803 0.845714 0.946729 0.954178 0.928226 0.899963 0.980023 0.948639 0.754219 0.926591 0.754551 0.932392 0.790605 0.791696 0.936867 0.910353 0.904871 0.852144 0.878541 0.931681 0.849889 0.804530 0.876035 0.883114 0.765375 0.891121 0.747267 0.699880 0.678409 0.704609 0.740948 0.654846 
0.340692 0.490980 0.766451 0.193769 0.400145 0.309863 0.222908 0.480256 0.678469 0.452925 0.373529 0.517651 0.537508 0.600900 0.752845 0.733521 0.898599 0.507318 0.369132 0.264850 0.414786 0.387526 0.477772 0.696695 0.782473 0.878385 0.740696 0.811041 0.233680 0.193002 0.112236 0.198944 0.091144 0.401155 0.446686 0.636022 0.579784 0.392640 0.431665 0.622137 0.677693 0.503294 0.524013 0.393087 0.442217 0.603422 0.597101 0.580935 0.629650 0.799427 0.933540 0.916435 0.963264 0.992814 0.979368 0.994895 0.984188 0.990760 0.957965 0.893334 0.928817 0.900439 0.938751 0.901409 0.898746 0.902179 0.935193 0.942506 0.910058 0.948488 0.474427 0.198475 0.629573 0.661539 0.720512 0.710412 0.489708 0.632343 0.763160 0.429865 0.210463 0.600762 0.757602 0.550592 0.458221 0.655661 0.717864 0.905283 0.893603 0.861970 0.980629 0.984500 0.997564 0.970338 0.823422 0.994221 0.991172 0.994317 0.971497 0.326088 0.411452 0.729067 0.814402 0.888793 0.900453 0.899387 0.911883 0.917024 0.885521 0.920364 0.945738 0.865118 0.770518 0.817569 0.749874 0.789941 0.766846 0.746475 0.808522 0.777363 0.808161 0.825911 0.615357 0.786598 0.474702 0.585229 0.665696 0.791262 0.868767 0.958396 0.988186 0.994698 0.998201 0.987993 0.973567 0.994492 0.888921 0.881290 0.900569 0.926349 0.998520 0.997007 0.864672 0.875302 0.878202 0.949474 0.851672 0.970935 0.989700 0.993246 0.991683 0.925142 0.870151 0.897241 0.905064 0.993491 0.989904 0.984700 0.996532 0.958458 0.966613 0.942808 0.875280 0.936374 0.235879 0.657102 0.942273 0.846407 0.712392 0.823183 0.767439 0.790702 0.796870 0.303537 0.400730 0.720403 0.885640 0.956934 0.931212 0.951063 0.921396 0.415544 0.513904 0.760746 
0.999994 0.999984 0.999994 0.999988 0.999991 0.999995 0.999986 0.999916 0.999969 0.999989 0.999957 0.999961 0.999942 0.999969 0.999957 0.999953 0.999897 0.999998 0.999993 0.999991 0.999996 0.999993 0.999994 0.999989 0.999982 0.999991 0.999994 0.999977 0.999992 0.999991 0.999994 0.999995 0.999989 0.999995 0.999991 0.999962 0.999973 0.999969 0.999985 0.999984 0.999994 0.999992 0.999979 0.999986 0.999994 0.999988 0.999992 0.999977 0.999966 0.999974 0.999928 0.999931 0.999982 0.999974 0.999956 0.999983 0.999985 0.999987 0.999986 0.999995 0.999992 0.999992 0.999990 0.999866 0.999994 0.999997 0.999974 0.999964 0.999950 0.999997 0.999981 0.999957 0.999959 0.999859 0.999984 0.999989 0.999927 0.999989 0.999685 0.999976 0.999941 0.999981 0.999989 0.999989 0.999989 0.999992 0.999972 0.999985 0.999913 0.999920 0.999967 0.999913 0.999967 0.999985 0.999957 0.999967 0.999984 0.999936 0.999961 0.999941 0.999966 0.999987 0.999976 0.999976 0.999964 0.999969 0.999993 0.999977 0.999982 0.999971 0.999962 0.999969 0.999994 0.999980 0.999972 0.999992 0.999966 0.999989 0.999997 0.999984 0.999992 0.999997 0.999996 0.999997 0.999989 0.999991 0.999981 0.999992 0.999972 0.999969 0.999992 0.999983 0.999988 0.999987 0.999791 0.999826 0.999909 0.999930 0.999913 0.999924 0.999987 0.999968 0.999993 0.999988 0.999985 0.999993 0.999998 0.999979 0.999979 0.999952 0.999827 0.999938 0.999641 0.999792 0.999930 0.999917 0.999955 0.999962 0.999983 0.999966 0.999850 0.999722 0.999894 0.999899 0.999681 0.999893 0.999935 0.999791 0.999920 0.999993 0.999995 0.999996 0.999994 0.999995 0.999995 0.999985 0.999992 0.999976 0.999975 0.999984 0.999975 0.999971 0.999994 0.999992 0.999995 0.999993 0.999994 0.999985 0.999974 0.999986 0.999979 0.999975 0.999983 0.999910 0.999952 0.999958 0.999985 0.999985 0.999936 0.999977 0.999965 0.999981 0.999902 0.999980 0.999974 0.999977 0.999937 0.999979 0.999966 0.999996 0.999997 0.999900 0.999976 0.999975 0.999969 0.999890 0.999958 0.999987 0.999900 0.999969 0.999984 0.999996 0.999904 0.999985 0.999922 0.999951 0.999895 0.999982 0.999997 0.999929 0.999998 0.999991 
0.635707 0.534952 0.622701 0.815073 0.970814 0.690794 0.816979 0.930252 0.843554 0.950334 0.672869 0.768290 0.738081 0.829529 0.843431 0.852126 0.895473 0.906751 0.839118 0.784971 0.687703 0.950909 0.947420 0.967254 0.824568 0.857139 0.953912 0.955602 0.946726 0.938226 0.759824 0.462904 0.627057 0.852776 0.836288 0.503960 0.735877 0.762507 0.765043 0.855769 0.838003 0.900644 0.904265 0.406329 0.645472 0.785860 0.639547 0.763464 0.802894 0.789766 0.492603 0.704170 0.753080 0.950924 0.811021 0.797778 0.776134 0.884799 0.779781 0.659156 0.840442 0.577086 0.441948 0.528060 0.687045 0.653634 0.811270 0.750091 0.340475 0.938121 0.830780 0.830716 0.859708 0.956866 0.520420 0.555744 0.961643 0.839314 0.973650 0.744620 0.958244 0.938456 0.920443 0.963700 0.919750 0.927468 0.833248 0.805413 0.842795 0.853404 0.883977 0.802170 0.760507 0.851674 0.863826 0.833614 0.908608 0.981955 0.939058 0.864389 0.897597 0.575698 0.519158 0.519158 0.594062 0.772927 0.770771 0.698215 0.772927 0.879385 0.945573 0.909239 0.921115 0.923777 0.906164 0.944666 0.909386 0.851242 0.709065 0.657189 0.766062 0.980533 0.953381 0.978187 0.991997 0.974884 0.996312 0.875244 0.975820 0.776286 0.767198 0.678236 0.866914 0.937848 0.915660 0.716228 0.671038 0.770771 0.857722 0.967720 0.970960 0.976949 0.832929 0.613204 0.740273 0.872050 0.769688 0.777952 0.664636 0.786150 0.840955 0.778529 0.317486 0.596868 0.749464 0.741702 0.924281 0.879352 0.972727 0.978026 0.689353 0.965096 0.807286 0.878697 0.964366 0.902867 0.808191 0.587879 0.737742 0.519158 0.425833 0.426678 0.420425 0.443155 0.410710 0.466913 0.614396 0.689765 0.731606 0.624395 0.672869 0.752448 0.657010 0.608488 0.789003 0.871637 0.896539 0.850788 0.819518 0.815931 0.968052 0.892328 0.948507 0.830683 0.882872 0.812648 0.669492 0.802977 0.736217 0.753171 0.832863 0.805053 0.758497 0.637023 0.593377 0.603414 0.747976 0.648966 0.609048 0.563505 0.633781 0.616931 0.601317 0.613930 0.644371 0.436815 
0.954839 0.620641 0.861133 0.992865 0.997065 0.990100 0.998336 0.993650 0.995673 0.998831 0.998746 0.998482 0.999178 0.998718 0.997647 0.998400 0.997013 0.971284 0.978781 0.995375 0.995410 0.999597 0.905392 0.996967 0.990315 0.988709 0.986197 0.986673 0.993588 0.972216 0.933698 0.672801 0.893194 0.982978 0.990166 0.993097 0.995847 0.975566 0.972387 0.978765 0.986078 0.990974 0.996908 0.998931 0.998180 0.999079 0.998323 0.997984 0.998285 0.746382 0.360955 0.744673 0.778555 0.865475 0.887930 0.843642 0.679172 0.836622 0.965225 0.986859 0.970053 0.984284 0.985938 0.992094 0.981840 0.804941 0.857322 0.985874 0.990499 0.997754 0.495824 0.947354 0.981504 0.993459 0.973559 0.491325 0.690003 0.548217 0.926038 0.833716 0.983834 0.998385 0.990289 0.837298 0.841094 0.876628 0.823741 0.874436 0.988386 0.993163 0.995777 0.980825 0.982536 0.981667 0.989531 0.990557 0.989763 0.987419 0.970423 0.985950 0.975428 0.988785 0.965863 0.601042 0.957430 0.994869 0.993926 0.983655 0.963008 0.972625 0.987674 0.988813 0.990136 0.972247 0.996586 0.995033 0.990029 0.996371 0.987740 0.929680 0.998905 0.999223 0.997549 0.997802 0.992232 0.998206 0.995365 0.999065 0.874533 0.990986 0.777250 0.952735 0.919970 0.992238 0.909192 0.932852 0.986300 0.979475 0.984159 0.964463 0.894405 0.951311 0.928846 0.860603 0.859245 0.978251 0.892738 0.994265 0.993570 0.991566 0.988782 0.998734 0.988597 0.986417 0.993917 0.877287 0.907430 0.729015 0.988437 0.995349 0.990329 0.991036 0.983448 0.987710 0.958155 0.923736 0.946495 0.975611 0.957232 0.899027 0.952028 0.983380 0.994684 0.991133 0.994693 0.952715 0.955076 0.998327 0.998357 0.996849 0.997679 0.998278 0.993558 0.997667 0.988075 0.953543 0.997501 0.992815 0.991579 0.994467 0.987601 0.986042 0.987138 0.829800 0.837778 0.998254 0.848593 0.943604 0.925421 0.992065 
0.999979 0.999948 0.992274 0.999906 0.999953 0.999849 0.999242 0.999929 0.999968 0.999979 0.999906 0.999889 0.999878 0.999877 0.999828 0.999617 0.999720 0.999419 0.999435 0.999540 0.999822 0.997568 0.995337 0.996309 0.996059 0.994066 0.995978 0.997398 0.996964 0.990601 0.981462 0.982691 0.993832 0.999542 0.999094 0.999932 0.999973 0.999934 0.999856 0.999760 0.999614 0.999094 0.999936 0.999851 0.999790 0.999906 0.999871 0.999879 0.999981 0.999895 0.999930 0.999821 0.999857 0.999993 0.999591 0.999922 0.999834 0.999956 0.999932 0.999937 0.999945 0.999169 0.998978 0.997731 0.998461 0.994427 0.999922 0.998461 0.999142 0.994009 0.997058 0.995672 0.994551 0.999378 0.999303 0.999497 0.999468 0.994850 0.999107 0.999943 0.999999 0.999791 0.999878 0.999667 0.999884 0.999586 0.999794 0.997529 0.998993 0.999556 0.999717 0.999957 0.999906 0.999372 0.999886 0.999905 0.999572 0.914989 0.981821 0.932808 0.961703 0.946032 0.948862 0.956270 0.972885 0.957167 0.970404 0.988675 0.977263 0.997495 0.999416 0.997300 0.998433 0.998554 0.989849 0.989245 0.997444 0.995417 0.999382 0.999326 0.998767 0.999651 0.999325 0.998432 0.996698 0.999255 0.999702 0.999768 0.999809 0.993117 0.999603 0.999584 0.998825 0.999626 0.998411 0.999726 0.999934 0.999937 0.999396 0.999741 0.999891 0.999915 0.999318 0.999996 0.999856 0.999994 0.999974 0.999994 0.999896 0.998768 0.992727 0.988430 0.993558 0.988107 0.983047 0.994344 0.990665 0.978727 0.969628 0.969839 0.964128 0.976704 0.975256 0.980248 0.981753 0.969977 0.986535 0.999940 0.999999 0.999834 0.999959 0.999856 0.999884 0.999809 0.999923 0.999493 0.970441 0.998787 0.999188 0.997127 0.994073 0.999620 0.999976 0.999983 0.999966 0.999811 0.999992 0.999993 0.999983 0.999985 0.999968 0.999927 0.999941 0.999745 0.999888 0.999789 0.999831 
1.000000 1.000000 1.000000 1.000000 1.000000 1.000000 1.000000 1.000000 1.000000 1.000000 1.000000 1.000000 1.000000 1.000000 1.000000 1.000000 1.000000 1.000000 1.000000 1.000000 1.000000 1.000000 1.000000 1.000000 1.000000 1.000000 1.000000 1.000000 1.000000 1.000000 1.000000 1.000000 1.000000 1.000000 1.000000 1.000000 1.000000 1.000000 1.000000 1.000000 1.000000 1.000000 1.000000 1.000000 1.000000 1.000000 1.000000 1.000000 1.000000 1.000000 1.000000 1.000000 1.000000 1.000000 1.000000 1.000000 1.000000 1.000000 1.000000 1.000000 1.000000 1.000000 1.000000 1.000000 1.000000 1.000000 1.000000 1.000000 1.000000 1.000000 1.000000 1.000000 0.999993 1.000000 1.000000 1.000000 1.000000 1.000000 1.000000 1.000000 1.000000 1.000000 1.000000 1.000000 1.000000 1.000000 1.000000 1.000000 1.000000 1.000000 1.000000 1.000000 1.000000 1.000000 1.000000 1.000000 1.000000 1.000000 1.000000 1.000000 1.000000 1.000000 1.000000 1.000000 1.000000 1.000000 1.000000 1.000000 1.000000 1.000000 1.000000 1.000000 1.000000 1.000000 1.000000 1.000000 1.000000 1.000000 1.000000 1.000000 1.000000 1.000000 1.000000 1.000000 1.000000 1.000000 1.000000 1.000000 1.000000 1.000000 1.000000 1.000000 1.000000 1.000000 1.000000 1.000000 1.000000 1.000000 1.000000 1.000000 1.000000 1.000000 1.000000 1.000000 1.000000 1.000000 1.000000 1.000000 1.000000 1.000000 1.000000 1.000000 1.000000 1.000000 1.000000 1.000000 1.000000 1.000000 1.000000 1.000000 1.000000 1.000000 1.000000 1.000000 1.000000 1.000000 1.000000 1.000000 1.000000 1.000000 1.000000 1.000000 1.000000 1.000000 1.000000 1.000000 1.000000 1.000000 1.000000 1.000000 1.000000 1.000000 1.000000 1.000000 1.000000 1.000000 1.000000 1.000000 1.000000 1.000000 1.000000 1.000000 1.000000 1.000000 1.000000 1.000000 1.000000 1.000000 1.000000 1.000000 1.000000 1.000000 1.000000 1.000000 1.000000 1.000000 1.000000 1.000000 1.000000 1.000000 1.000000 1.000000 1.000000 1.000000 1.000000 1.000000 1.000000 1.000000 1.000000 1.000000 1.000000 1.000000 1.000000 1.000000 1.000000 1.000000 1.000000 1.000000 1.000000 1.000000 1.000000 1.000000 1.000000 1.000000 1.000000 1.000000 1.000000 1.000000 1.000000 1.000000 1.000000 1.000000 1.000000 1.000000 0.999999 1.000000 1.000000 1.000000 1.000000 1.000000 1.000000 1.000000 1.000000 1.000000 1.000000 1.000000 1.000000 1.000000 0.999999 1.000000 0.999970 
0.728202 0.998309 0.999850 0.999552 0.999890 0.999733 0.999211 0.999284 0.999219 0.993165 0.996955 0.990261 0.994420 0.996346 0.985461 0.992823 0.989582 0.955856 0.967936 0.963229 0.970880 0.952690 0.975286 0.893786 0.854792 0.880576 0.890131 0.881293 0.579125 0.872376 0.676382 0.956881 0.889085 0.685184 0.742480 0.493119 0.690001 0.672568 0.778503 0.584083 0.627899 0.930203 0.827457 0.918933 0.888846 0.880348 0.897861 0.659303 0.926202 0.972777 0.272547 0.968279 0.999010 0.991579 0.609716 0.959984 0.644061 0.815129 0.908528 0.982770 0.953929 0.968465 0.904664 0.879856 0.898139 0.881685 0.887460 0.763717 0.813460 0.975004 0.986453 0.995494 0.943823 0.993704 0.999238 0.986283 0.996581 0.995901 0.991334 0.991863 0.993532 0.990277 0.996194 0.993750 0.995854 0.997462 0.997484 0.997668 0.998204 0.996071 0.996783 0.998547 0.999198 0.864413 0.841116 0.913136 0.822744 0.949825 0.918637 0.899119 0.840477 0.881791 0.957181 0.901225 0.933529 0.842919 0.878291 0.918685 0.849572 0.862538 0.816000 0.918840 0.991898 0.916338 0.922929 0.928905 0.990953 0.996509 0.942214 0.913380 0.838258 0.841949 0.907635 0.770398 0.588386 0.747958 0.902046 0.894603 0.959883 0.982073 0.990820 0.987961 0.998449 0.993800 0.994742 0.997896 0.999457 0.999357 0.999572 0.999594 0.999915 0.999359 0.975186 0.998985 0.962030 0.797455 0.933808 0.992333 0.971805 0.950283 0.958892 0.991842 0.995838 0.967363 0.997711 0.936686 0.998464 0.979611 0.985221 0.990614 0.986319 0.919014 0.646572 0.706381 0.534747 0.767655 0.674910 0.712546 0.441357 0.463085 0.446613 0.626181 0.797198 0.893502 0.787652 0.817273 0.884785 0.985807 0.991467 0.909450 0.835665 0.885513 0.834769 0.894457 0.837389 0.863466 0.865677 0.920988 0.933186 0.968294 0.873131 0.979015 0.964746 0.829297 0.807336 0.882610 0.976413 0.974317 0.995100 0.956594 0.937518 0.943716 0.975820 0.979816 0.890231 0.985349 0.975644 0.979810 0.945669 0.966000 0.963220 0.858616 0.790240 0.992009 0.935848 0.917700 0.986535 0.967813 0.931591 0.969614 
0.814838 0.850188 0.948943 0.976947 0.998329 0.999651 0.999728 0.993986 0.668649 0.738141 0.836223 0.848010 0.916985 0.896523 0.943434 0.968756 0.937365 0.945529 0.977757 0.942687 0.977113 0.991882 0.987606 0.982898 0.979956 0.945769 0.962795 0.919559 0.824511 0.953221 0.842343 0.871176 0.860707 0.948294 0.853516 0.955006 0.976498 0.803828 0.896209 0.855588 0.886150 0.933872 0.852409 0.905655 0.961064 0.908600 0.947582 0.860939 0.936171 0.957774 0.978598 0.883387 0.900605 0.978026 0.902654 0.921626 0.994578 0.992636 0.991315 0.990366 0.979193 0.814290 0.967594 0.724076 0.883544 0.850466 0.802264 0.808563 0.799657 0.754334 0.976088 0.979661 0.982526 0.839551 0.877084 0.736646 0.847096 0.808922 0.884604 0.885648 0.874633 0.785027 0.875104 0.833394 0.889516 0.793450 0.816764 0.780855 0.913796 0.596536 0.774028 0.761298 0.824975 0.898535 0.953582 0.911340 0.896269 0.763325 0.815053 0.977875 0.975037 0.981507 0.997170 0.988499 0.993066 0.992321 0.979977 0.974590 0.894985 0.920426 0.778439 0.839506 0.680239 0.971422 0.937425 0.946826 0.965845 0.969809 0.989720 0.981912 0.907352 0.742474 0.788772 0.781449 0.817870 0.826684 0.764558 0.820457 0.834246 0.796913 0.833378 0.825638 0.747732 0.921904 0.857139 0.860702 0.954250 0.977998 0.968270 0.923199 0.652819 0.785416 0.662815 0.743875 0.964462 0.923132 0.953373 0.959536 0.967382 0.643970 0.551552 0.776957 0.638792 0.666122 0.781767 0.725528 0.825978 0.622518 0.841532 0.768367 0.725400 0.786082 0.946816 0.805154 0.962417 0.984489 0.993004 0.991978 0.991695 0.873013 0.699898 0.927723 0.891289 0.995739 0.999411 0.997802 0.985148 0.888996 0.951949 0.931761 0.906412 0.836675 0.844127 0.985544 0.985844 0.994935 0.968387 0.963532 0.961708 0.842924 0.898172 0.900173 0.994119 0.998067 0.999004 0.999498 0.992843 0.933963 0.949363 0.976986 0.937844 0.958792 0.966366 0.986171 0.995984 0.947630 0.935574 0.977323 0.978427 0.967497 0.966953 0.914598 0.932285 0.939023 0.883608 0.930767 0.943133 0.706232 0.643249 0.708746 0.677794 0.824733 0.669751 0.664581 0.559276 0.586379 0.468924 0.617193 0.348309 0.411326 0.372031 
0.953231 0.995654 0.996941 0.971114 0.875921 0.792583 0.804467 0.882023 0.796524 0.814392 0.820447 0.860569 0.817821 0.799217 0.881805 0.870435 0.901189 0.893258 0.912717 0.872588 0.772577 0.813415 0.797671 0.795193 0.805979 0.781644 0.983026 0.997566 0.903430 0.874819 0.981883 0.994820 0.986460 0.948878 0.987492 0.990022 0.974745 0.968172 0.987927 0.998973 0.998011 0.998890 0.998541 0.979503 0.994423 0.925410 0.974113 0.994651 0.975489 0.965849 0.968063 0.953875 0.956601 0.957358 0.971065 0.980777 0.978504 0.945774 0.935862 0.792835 0.760901 0.823324 0.857617 0.860104 0.836695 0.982709 0.953311 0.723195 0.836994 0.644011 0.879053 0.452703 0.912241 0.992115 0.984195 0.987585 0.984171 0.976436 0.989260 0.953640 0.967093 0.927270 0.962418 0.966878 0.996367 0.931839 0.995396 0.853248 0.839602 0.762966 0.762405 0.800721 0.850649 0.812207 0.770574 0.838704 0.915633 0.859619 0.840891 0.818847 0.747064 0.833804 0.822857 0.745582 0.806965 0.770519 0.789717 0.848005 0.809639 0.822074 0.953692 0.993939 0.471165 0.896279 0.827715 0.952738 0.890330 0.918779 0.983097 0.989789 0.992365 0.988840 0.994006 0.864030 0.921326 0.916058 0.965749 0.945461 0.802606 0.770722 0.781628 0.973431 0.940383 0.979833 0.975483 0.986752 0.980101 0.937168 0.976033 0.863567 0.797168 0.875102 0.809739 0.775742 0.863582 0.850745 0.855888 0.808438 0.858674 0.838657 0.827429 0.832356 0.863437 0.755208 0.803647 0.856771 0.715689 0.763435 0.999625 0.969426 0.966663 0.973414 0.908108 0.946577 0.934160 0.960874 0.949192 0.979225 0.978390 0.992202 0.984291 0.976377 0.863296 0.899812 0.944789 0.903512 0.947123 0.836063 0.795074 0.863774 0.979463 0.931950 0.913306 0.751597 0.840687 0.803919 0.868941 0.918877 0.930583 0.963044 0.881537 
0.974165 0.954132 0.987410 0.914375 0.990055 0.997009 0.970951 0.993789 0.975359 0.992638 0.980463 0.992308 0.974011 0.892401 0.527557 0.521330 0.425147 0.387140 0.375715 0.451497 0.376282 0.422944 0.383061 0.364941 0.399536 0.340794 0.364413 0.367989 0.371085 0.365574 0.356092 0.345783 0.336592 0.938743 0.870247 0.614792 0.877262 0.573282 0.794384 0.973898 0.968904 0.978477 0.987081 0.926428 0.578218 0.984783 0.956707 0.764857 0.939041 0.991173 0.982587 0.987568 0.957338 0.790994 0.977871 0.920052 0.700024 0.940061 0.912529 0.958617 0.984393 0.939482 0.966623 0.931199 0.838787 0.913941 0.970032 0.889041 0.888115 0.935732 0.978336 0.992910 0.956910 0.991581 0.944305 0.999171 0.999898 0.997260 0.992318 0.881375 0.976944 0.956330 0.856586 0.929514 0.949793 0.960086 0.974321 0.849745 0.961684 0.992741 0.989295 0.975895 0.846289 0.950739 0.812901 0.822970 0.852892 0.940182 0.959323 0.967451 0.885076 0.984294 0.955811 0.998284 0.987633 0.999567 0.978573 0.999824 0.999417 0.985603 0.955123 0.918097 0.916274 0.799419 0.960574 0.810597 0.927161 0.868531 0.762759 0.748977 0.835415 0.818599 0.877553 0.795452 0.712182 0.664980 0.828739 0.783603 0.724285 0.701816 0.637750 0.613578 0.603182 0.697004 0.487011 0.599505 0.605666 0.985430 0.989035 0.988395 0.998214 0.999860 0.999458 0.997637 0.995031 0.992434 0.996623 0.999569 0.980690 0.978048 0.819560 0.981334 0.974663 0.956835 0.983342 0.891707 0.903392 0.937491 0.879889 0.832442 0.772521 0.929915 0.860762 0.858129 0.837184 0.833022 0.870224 0.957112 0.944871 0.446166 0.829463 0.609334 0.791627 0.994846 0.993675 0.946501 0.817292 0.982593 0.856453 0.956560 0.952541 0.918550 0.890418 0.935071 0.983564 0.964520 0.933483 0.992934 0.975873 0.995140 0.988220 0.900602 0.514682 0.940467 0.632980 0.913421 0.934071 0.989127 0.938078 0.958086 0.885567 0.887340 0.866470 0.904511 0.883940 0.800140 
0.972499 0.999663 0.999474 0.999777 0.999979 0.999942 0.999987 0.999987 0.999285 0.999947 0.999961 0.999985 0.999995 0.999998 0.999999 0.999987 0.999986 0.999988 0.999860 0.999942 0.999954 0.999998 0.999969 0.999989 0.999954 0.999274 0.998192 0.999674 0.999991 0.999714 0.999928 0.999978 0.999995 0.999990 0.999999 0.999994 0.999999 0.999993 0.999992 0.999987 0.999881 0.999587 0.999999 0.999988 0.999993 0.999999 0.999997 0.998979 0.999901 0.998788 0.978447 0.958362 0.967843 0.998964 0.999767 0.997187 0.999090 0.998335 0.998269 0.987196 0.999363 0.996415 0.999542 0.999594 0.998152 0.997314 0.998937 0.999445 0.998291 0.998249 0.917799 0.875291 0.949726 0.996109 0.997606 0.994305 0.998319 0.999937 0.999963 0.999988 1.000000 0.999998 0.999999 0.999999 0.999995 0.999998 0.999998 0.999997 0.998545 0.973272 0.998013 0.999890 0.999574 0.999816 0.998560 0.995811 0.996238 0.998692 0.999381 0.998642 0.999507 0.999886 0.999800 0.999339 0.996543 0.996999 0.998626 0.998522 0.997242 0.996372 0.995452 0.995142 0.996951 0.926856 0.997002 0.984351 0.980548 0.996459 0.997720 0.991953 0.988478 0.997761 0.999852 0.999989 0.999995 0.999996 0.999994 0.999990 0.999995 0.999993 0.988987 0.979518 0.987918 0.999989 0.999955 1.000000 1.000000 0.999996 0.993785 0.999459 0.999808 0.999992 0.999832 0.999178 0.987206 0.974522 0.998852 0.996672 0.993431 0.988825 0.970813 0.992150 0.979347 0.995812 0.999891 0.999932 0.999977 0.999721 0.994606 0.999033 0.998121 0.997881 0.999573 0.998686 0.999927 0.999299 0.977205 0.999902 0.999901 0.999968 0.999978 0.999949 0.999985 0.999995 0.999973 0.999995 0.999886 0.999797 0.999915 0.999914 0.999978 0.999766 0.999929 0.999992 0.999998 0.999976 0.999644 0.999479 0.999870 0.999896 0.998192 0.992225 0.991118 0.993895 
0.999845 0.999872 0.999590 0.999944 0.999641 0.999945 0.999921 0.999899 0.999974 0.999924 0.999990 0.999955 0.999931 0.999868 0.999928 0.999739 0.999951 0.999878 0.999515 0.999603 0.999917 0.999930 0.999933 0.999870 0.999972 0.999892 0.999959 0.999952 0.999888 0.999916 0.999877 0.999066 0.999729 0.995574 0.991231 0.999514 0.999554 0.999511 0.999858 0.999878 0.999953 0.999825 0.999882 0.999915 0.999674 0.998067 0.999407 0.998644 0.998957 0.999006 0.999515 0.999760 0.999445 0.999805 0.999945 0.999927 0.999924 0.999895 0.993323 0.995637 0.999956 0.997754 0.998884 0.999788 0.998847 0.999233 0.999334 0.999895 0.999798 0.999502 0.999755 0.999778 0.999850 0.999628 0.999751 0.999789 0.999479 0.999558 0.999704 0.999597 0.999671 0.999848 0.999639 0.999586 0.999794 1.000000 0.997463 0.996949 0.997065 0.998510 0.989515 0.989502 0.993041 0.997623 0.999954 0.999967 0.997186 0.993739 0.983443 0.998257 0.999046 0.997436 0.998352 0.998134 0.999578 0.999783 0.999459 0.999868 0.999787 0.999587 0.996600 0.999889 0.998370 0.994799 0.999363 0.999911 0.999822 0.999830 0.999683 0.999714 0.998152 0.998171 0.995417 0.999625 0.999916 0.996861 0.999820 0.999989 0.999930 0.999992 0.996479 0.999308 0.998195 0.998319 0.999929 0.990054 0.995359 0.999838 0.985569 0.990968 0.990173 0.982692 0.996807 0.999234 0.998345 0.995953 0.994083 0.998281 0.999614 0.996407 0.999719 0.998970 0.999796 0.998399 0.999807 0.999841 0.999618 0.999837 0.999823 0.999888 0.999145 0.999152 0.996360 0.997109 0.996697 0.999517 0.999843 0.999915 0.999345 0.999930 0.996566 0.997535 0.998925 0.997660 0.999805 0.999658 0.999947 0.999971 0.999723 0.993585 0.989752 0.977837 0.994721 0.998021 0.992786 0.947221 0.972246 0.941843 0.992555 0.997446 0.998400 0.998999 0.966712 0.991134 0.998967 0.999926 0.999949 0.999518 0.999848 0.999762 0.995003 0.995089 
0.998967 0.999937 0.999945 0.987201 0.999785 0.999812 0.997666 0.999238 0.998911 0.997582 0.992262 0.992522 0.983313 0.993856 0.996116 0.998244 0.991304 0.978565 0.976507 0.965355 0.598171 0.818178 0.877289 0.906505 0.932437 0.748001 0.819589 0.992627 0.995560 0.988336 0.999677 0.999756 0.999698 0.999914 0.956571 0.796173 0.904901 0.999390 0.999655 0.999371 0.999571 0.998289 0.999070 0.996709 0.997181 0.991432 0.998270 0.998427 0.996273 0.985034 0.996883 0.996875 0.997500 0.997674 0.996207 0.997377 0.999200 0.997502 0.891372 0.890854 0.892736 0.812338 0.970516 0.922030 0.946409 0.996182 0.947158 0.915798 0.955014 0.839610 0.922948 0.981062 0.874737 0.833307 0.908245 0.924731 0.804926 0.867431 0.884254 0.918017 0.907820 0.930849 0.903710 0.820568 0.998881 0.997015 0.996974 0.999920 0.999915 0.999915 0.999705 0.996255 0.992452 0.999295 0.997641 0.992981 0.996815 0.995410 0.997216 0.999340 0.999449 0.999849 0.999933 0.999749 0.999682 0.999896 0.999935 0.999869 0.999930 0.999961 0.999946 0.999957 0.999990 0.999985 0.999987 0.995376 0.501597 0.660113 0.955008 0.993077 0.995836 0.997315 0.946723 0.908688 0.795278 0.938622 0.960035 0.897731 0.831124 0.838299 0.845965 0.844117 0.923919 0.866887 0.887255 0.957546 0.892961 0.877220 0.856075 0.930783 0.938982 0.845794 0.876145 0.829603 0.902687 0.843025 0.876726 0.763297 0.897451 0.884128 0.821061 0.843278 0.954855 0.973860 0.977825 0.971775 0.750619 0.857599 0.999856 0.998529 0.998630 0.999543 0.999785 0.999796 0.984860 0.998165 0.999876 0.999886 0.999788 0.999673 0.998639 0.999767 0.999485 0.998895 0.989581 0.999684 0.999973 0.999881 0.999992 0.999641 0.999905 0.999857 0.999884 0.998980 0.999758 0.999452 0.998302 0.995694 0.986592 0.961542 0.991219 0.998036 0.993890 0.995800 0.997454 0.999284 0.998085 0.998976 0.999068 0.999265 0.998889 0.998607 0.999383 0.999223 0.999508 0.983095 0.993085 0.997665 0.997887 0.984181 0.999191 0.854842 0.983133 0.995645 0.995703 0.998909 0.998365 0.999764 0.987369 0.998686 0.999983 0.999894 0.999955 
0.931655 0.066840 0.173104 0.685120 0.927338 0.743020 0.748778 0.768350 0.755933 0.701181 0.566060 0.585655 0.524414 0.290731 0.463805 0.306600 0.411395 0.342481 0.389624 0.382410 0.456788 0.446625 0.423873 0.905439 0.656298 0.245213 0.169765 0.408726 0.377143 0.651629 0.550777 0.360081 0.399917 0.299314 0.318648 0.420865 0.645857 0.919733 0.943057 0.966410 0.985213 0.238680 0.272569 0.416836 0.334834 0.952400 0.455761 0.406670 0.455396 0.928377 0.942697 0.990038 0.450698 0.510966 0.612619 0.826261 0.163062 0.154918 0.820210 0.894487 0.881797 0.502008 0.209461 0.199904 0.440398 0.877678 0.505319 0.881925 0.917797 0.067101 0.338802 0.384630 0.535912 0.549203 0.426609 0.774291 0.527972 0.745012 0.455977 0.407780 0.321942 0.306702 0.264054 0.155205 0.290348 0.086493 0.179493 0.733263 0.338734 0.456922 0.460805 0.553183 0.434370 0.338356 0.535524 0.432250 0.464673 0.293387 0.328084 0.514389 0.482644 0.541528 0.240248 0.461837 0.253945 0.447703 0.807747 0.872351 0.439430 0.541551 0.112906 0.109493 0.542664 0.862922 0.996325 0.983309 0.917830 0.869358 0.969275 0.643892 0.179128 0.595908 0.331222 0.129392 0.220518 0.693840 0.976536 0.309918 0.225327 0.119391 0.379081 0.910479 0.410040 0.338774 0.298078 0.338652 0.666430 0.683865 0.151287 0.233775 0.347532 0.431789 0.716817 0.564086 0.396177 0.179539 0.183967 0.407760 0.545991 0.342786 0.360854 0.169118 0.305888 0.088946 0.131468 0.039936 0.359999 0.313561 0.304262 0.316773 0.234855 0.284264 0.288279 0.190332 0.185670 0.348570 0.208330 0.130777 0.189423 0.266858 0.166079 0.127659 0.290743 0.181673 0.253702 0.352809 0.282610 0.253576 0.106035 0.083275 0.219932 0.261317 0.491932 0.621113 0.287974 0.006663 0.246240 0.412248 0.551143 0.458748 0.552094 0.552516 0.062970 0.352049 0.117724 0.208877 0.439628 0.356225 0.470181 0.451341 
0.998184 0.989708 0.999806 0.999961 0.999995 0.999997 0.999734 0.999964 0.999992 0.999993 0.999991 0.999990 0.999988 0.999976 0.999969 0.999987 0.999991 0.999991 0.999995 0.999992 0.999994 0.999994 0.999994 0.999968 0.997425 0.999194 0.999496 0.999913 0.999783 0.999857 0.999881 0.999913 0.999971 0.999936 0.999868 0.999935 0.999916 0.999962 0.999624 0.999929 0.999856 0.999826 0.999630 0.999880 0.999783 0.999431 0.999308 0.999985 0.999980 0.999991 0.999978 0.999964 0.997498 0.999171 0.999742 0.999722 0.999738 0.999191 0.999880 0.999745 0.999922 0.999836 0.999794 0.999522 0.999956 0.999939 0.999975 0.999942 0.999919 0.999935 0.999929 0.999910 0.999934 0.999956 0.999950 0.999979 0.999988 0.999722 0.999984 0.999972 0.999962 0.999982 0.999979 0.999967 0.999972 0.999978 0.999988 0.999959 0.999969 0.999952 0.999954 0.999956 0.999983 0.999925 0.999956 0.999985 0.999962 0.999552 0.999913 0.999957 0.999962 0.999987 0.999972 0.999986 0.999955 0.999979 0.999976 0.999979 0.999986 0.999979 0.999369 0.999250 0.995775 0.998787 0.999518 0.999918 0.999940 0.999921 0.999813 0.999291 0.999021 0.998358 0.999968 0.997437 0.992448 0.998290 0.993562 0.982698 0.998210 0.998855 0.999494 0.997343 0.999906 0.999404 0.999832 0.999976 0.999993 0.999981 0.999653 0.997365 0.999834 0.999775 0.999738 0.992157 0.996674 0.999870 0.998406 0.994203 0.996767 0.997783 0.999729 0.999540 0.999860 0.999902 0.995659 0.998038 0.999418 0.999728 0.999860 0.999662 0.999803 0.994370 0.998841 0.996505 0.999566 0.999983 0.999990 0.999977 0.999960 0.999946 0.999951 0.999980 0.999539 0.999967 0.999958 0.999872 0.999860 0.999948 0.999950 0.999933 0.999950 0.999976 0.999982 0.999981 0.999966 0.998533 0.990401 0.996533 0.999737 0.995134 0.995848 0.960908 0.999239 0.977214 0.997692 0.999805 0.999565 0.999548 0.999884 0.999864 0.999923 
0.979251 0.998033 0.996723 0.995122 0.976349 0.970093 0.990250 0.959870 0.950240 0.945185 0.968624 0.936477 0.917622 0.943830 0.946359 0.976436 0.954962 0.944915 0.942215 0.902918 0.889264 0.934568 0.906086 0.990926 0.956648 0.970654 0.901803 0.786702 0.928725 0.788847 0.965203 0.941043 0.967533 0.939277 0.921759 0.790943 0.919526 0.986647 0.992358 0.982010 0.769200 0.532197 0.693122 0.816534 0.819679 0.739403 0.897992 0.950723 0.967486 0.942439 0.896546 0.934889 0.875216 0.885541 0.623846 0.819149 0.728744 0.847976 0.826617 0.840443 0.927904 0.938277 0.895426 0.963030 0.985464 0.991026 0.797384 0.786104 0.895696 0.915722 0.922817 0.930846 0.938404 0.890688 0.954389 0.992286 0.931007 0.955609 0.968321 0.963953 0.576494 0.734511 0.777915 0.717187 0.710190 0.726357 0.689290 0.670576 0.771480 0.857593 0.900285 0.822096 0.778242 0.917909 0.877453 0.802602 0.853837 0.876279 0.891294 0.890172 0.948862 0.886210 0.888044 0.902670 0.881308 0.786865 0.978268 0.889120 0.971449 0.980385 0.991946 0.924380 0.906643 0.918739 0.963944 0.919292 0.916816 0.899757 0.846725 0.924200 0.831750 0.867498 0.797158 0.971368 0.947967 0.964757 0.900304 0.896848 0.945994 0.837354 0.820228 0.966165 0.900806 0.990904 0.975119 0.960728 0.964321 0.880296 0.804919 0.924009 0.960538 0.962972 0.961277 0.938741 0.768113 0.944746 0.776120 0.920589 0.818637 0.734323 0.980466 0.943966 0.973702 0.948842 0.858061 0.926171 0.907317 0.964010 0.951920 0.855773 0.888123 0.867667 0.919642 0.932101 0.935558 0.904448 0.943508 0.947719 0.840232 0.858751 0.949655 0.952294 0.909512 0.867924 0.923218 0.975595 0.837571 0.953015 0.968858 0.944347 0.901650 0.927508 0.899356 0.942372 0.929969 0.988656 0.977351 0.842869 0.952420 0.954653 0.980692 0.975779 0.983181 0.968822 0.982991 0.951351 0.985615 0.878690 0.962914 0.909063 0.880444 0.937790 0.862649 0.943317 0.982148 0.992983 0.809406 0.998634 0.993060 0.999561 0.996703 0.908640 0.988113 0.905733 0.834067 0.745646 0.871918 0.853544 0.896944 0.939344 0.973970 0.932752 0.945810 0.911402 0.922098 0.938802 0.910987 0.935425 0.879581 0.914187 0.861286 
0.943928 0.998940 0.997038 0.998752 0.992292 0.957655 0.994301 0.975959 0.960211 0.923380 0.976910 0.991703 0.969927 0.969279 0.926899 0.986586 0.986379 0.983716 0.992935 0.993401 0.996257 0.993287 0.996426 0.997078 0.996429 0.988259 0.993421 0.999661 0.996595 0.999897 0.999412 0.994309 0.999751 0.998142 0.999813 0.999471 0.999992 0.999980 0.999558 0.999862 0.999866 0.999927 0.999988 0.999816 0.999940 0.999919 0.999966 0.999997 0.999939 0.999894 0.999960 0.999996 0.999759 0.999806 0.999982 0.999990 0.999950 0.999974 0.999867 0.999703 0.999988 0.999995 0.999998 0.999394 0.999984 0.999965 0.999991 0.999983 0.999936 0.999787 0.999936 0.999973 0.999977 0.999986 0.999993 0.864930 0.905392 0.900039 0.952397 0.797919 0.948428 0.982714 0.999159 0.999969 0.999995 0.999952 0.999953 0.999985 0.999998 0.999997 0.999850 0.999944 0.999971 0.999997 0.999997 0.999997 0.999998 0.999997 0.999997 0.999993 0.999898 0.999886 0.999837 0.999855 0.999644 0.999723 0.999432 0.999380 0.998117 0.999356 0.998741 0.999264 0.999888 0.998111 0.997470 0.999349 0.999717 0.999965 0.999581 0.999783 0.999957 0.999966 0.999935 0.999729 0.999972 0.999944 0.999954 0.999996 0.999947 0.999185 0.998426 0.996996 0.999851 0.999611 0.999766 0.999547 0.974338 0.999757 0.999776 0.998320 0.998277 0.999710 0.999860 0.999313 0.999440 0.999470 0.999927 0.999964 0.999744 0.999176 0.999976 0.999939 0.999676 0.999753 0.999601 0.999590 0.999595 0.999922 0.999934 0.999731 0.999898 0.999667 0.999780 0.998425 0.999917 0.999633 0.999752 0.998046 0.999604 0.999707 0.999965 0.999917 0.999896 0.980912 0.933498 0.927391 0.958545 0.976861 0.969262 0.977654 0.995752 0.999699 0.999911 0.999972 0.999978 0.999978 0.999967 0.999895 0.999897 0.999931 0.999913 0.999968 0.999630 0.999610 0.997639 0.992713 0.988707 0.992190 0.990859 0.994021 0.997634 0.999784 0.999925 0.999154 0.992762 0.951045 0.802909 0.848241 0.959977 0.981799 0.857990 0.951681 0.968707 0.999263 0.985101 0.991233 0.998637 0.999816 0.997266 0.999514 0.997944 0.999762 0.997618 0.993530 0.999390 0.986297 0.999374 0.999886 0.999868 0.999830 0.979191 0.997757 0.996880 0.997893 0.999434 0.992219 0.963075 0.995778 0.981898 0.950805 0.956728 0.564243 0.910706 0.901899 0.973274 0.906279 0.918758 0.807683 0.954116 0.907122 0.988557 0.998570 0.998691 0.999462 
0.936559 0.945446 0.914326 0.941194 0.693112 0.782505 0.570324 0.636323 0.320647 0.827160 0.956270 0.773493 0.829665 0.861143 0.954873 0.190919 0.987444 0.858422 0.672746 0.920825 0.976022 0.953662 0.931254 0.800570 0.738685 0.960480 0.939821 0.802370 0.985032 0.935603 0.855915 0.951465 0.959585 0.984863 0.942709 0.893812 0.909658 0.744944 0.803652 0.951470 0.962025 0.929137 0.890592 0.919543 0.892238 0.909014 0.958405 0.849143 0.527613 0.834126 0.931556 0.828481 0.920604 0.978945 0.845531 0.974352 0.979703 0.992024 0.997719 0.948701 0.928241 0.961957 0.908467 0.923246 0.904586 0.910280 0.875104 0.756590 0.481769 0.641593 0.895926 0.832006 0.872991 0.799035 0.624968 0.661394 0.507768 0.845688 0.324374 0.931047 0.977710 0.947665 0.970364 0.533263 0.451846 0.895458 0.990598 0.913529 0.997945 0.976636 0.992556 0.956789 0.973225 0.930544 0.910310 0.923890 0.994467 0.886819 0.948792 0.961424 0.569768 0.993656 0.970859 0.999037 0.990301 0.999478 0.976888 0.999390 0.888510 0.945019 0.900156 0.847467 0.943892 0.903912 0.902158 0.894302 0.894675 0.874300 0.928350 0.886141 0.898950 0.904618 0.993726 0.995326 0.992960 0.998668 0.993321 0.974422 0.980522 0.968623 0.990937 0.980438 0.995490 0.996581 0.996874 0.892778 0.929075 0.929700 0.990873 0.960427 0.999357 0.940430 0.928536 0.998531 0.972795 0.998135 0.977529 0.994415 0.910199 0.914544 0.966173 0.997206 0.927982 0.887852 0.882616 0.691919 0.766270 0.730292 0.866099 0.802023 0.973250 0.921538 0.963892 0.997047 0.997556 0.982861 0.978488 0.985829 0.971887 0.947848 0.983148 0.949822 0.982154 0.985976 0.967430 0.950190 0.992836 0.997949 0.986898 0.986631 0.989028 0.999299 0.968381 0.998964 0.999943 0.997862 0.997327 0.966870 0.980811 0.978878 0.885296 0.935600 0.875413 0.858258 0.847721 0.869066 0.862428 0.830568 0.915610 0.843891 0.924969 0.958846 
0.995982 0.998528 0.999151 0.996332 0.911913 0.973472 0.992957 0.958280 0.910311 0.990986 0.999101 0.957043 0.975309 0.998380 0.985254 0.997983 0.957383 0.986371 0.993243 0.988203 0.992406 0.957517 0.942449 0.910833 0.679818 0.795241 0.884878 0.928519 0.903654 0.937138 0.876083 0.895808 0.921392 0.868884 0.837070 0.872668 0.895402 0.862487 0.827494 0.896879 0.914572 0.904439 0.889537 0.856818 0.845287 0.908029 0.991295 0.962662 0.958857 0.995732 0.987514 0.997926 0.993802 0.994722 0.992468 0.985285 0.906945 0.941569 0.949309 0.996602 0.988198 0.924896 0.968316 0.978174 0.991631 0.994902 0.995535 0.987130 0.970400 0.984542 0.972738 0.991510 0.979282 0.962312 0.991951 0.987834 0.991566 0.994540 0.995295 0.993425 0.997849 0.999183 0.920725 0.998199 0.998611 0.999532 0.996985 0.999309 0.999908 0.997786 0.998757 0.999758 0.999073 0.997678 0.998863 0.976790 0.988713 0.998319 0.995740 0.990488 0.988748 0.931972 0.982199 0.990526 0.994861 0.992836 0.968623 0.943302 0.709938 0.830555 0.932855 0.900080 0.897199 0.993863 0.999211 0.993548 0.999643 0.999251 0.999646 0.996887 0.998968 0.999195 0.999223 0.998237 0.998880 0.996662 0.979473 0.929864 0.889910 0.920852 0.932881 0.937716 0.892839 0.901861 0.912300 0.915726 0.902244 0.892507 0.941908 0.953454 0.946047 0.965602 0.949965 0.921560 0.948034 0.923579 0.979170 0.946569 0.964194 0.965047 0.977575 0.999503 0.998802 0.977745 0.966228 0.972383 0.940376 0.989089 0.887709 0.831540 0.979805 0.991162 0.967447 0.977660 0.993670 0.990492 0.835363 0.947723 0.994301 0.992207 0.965312 0.930238 0.969136 0.978440 0.979038 0.981307 0.964032 0.996653 0.967737 0.996071 0.990050 0.989347 0.970065 0.954383 0.959936 0.947827 0.992204 0.987621 0.994039 0.974008 0.995686 0.988533 0.998793 0.995946 0.971094 0.985211 0.995965 0.998931 0.991871 0.998403 0.992280 0.995091 0.999567 0.999710 0.997812 0.999294 0.999052 0.999495 0.998583 0.958805 0.995330 0.992369 0.996721 0.988112 0.966384 0.945472 0.963813 0.946334 0.858627 0.989811 0.748406 0.931455 0.914173 0.931691 0.931411 
0.989528 0.954794 0.997923 0.999439 0.991181 0.849222 0.989679 0.995685 0.997913 0.977356 0.943602 0.986925 0.972094 0.962027 0.961984 0.973433 0.948352 0.977715 0.923154 0.944415 0.923499 0.936556 0.977073 0.997717 0.999543 0.999292 0.999968 0.999725 0.999653 0.999952 0.999909 0.954015 0.997496 0.998869 0.993910 0.943994 0.990726 0.979147 0.987799 0.988237 0.959465 0.926525 0.989723 0.999471 0.997589 0.975797 0.842352 0.980676 0.783149 0.998275 0.982407 0.932550 0.945875 0.967109 0.971058 0.868304 0.933252 0.931245 0.952754 0.951255 0.981246 0.935742 0.877914 0.907336 0.942579 0.976058 0.985412 0.956567 0.980078 0.976582 0.984951 0.975537 0.926770 0.985437 0.991990 0.994125 0.998006 0.998806 0.999337 0.998970 0.998688 0.998861 0.991326 0.997676 0.984718 0.953593 0.996502 0.932273 0.995998 0.989729 0.998676 0.998901 0.998872 0.974103 0.999066 0.861763 0.997211 0.999309 0.998953 0.998999 0.999086 0.998263 0.999583 0.999425 0.999463 0.998997 0.995622 0.958291 0.989755 0.998974 0.978671 0.990062 0.982991 0.990373 0.994024 0.995150 0.998637 0.995204 0.998448 0.996800 0.998346 0.995008 0.996037 0.997543 0.996252 0.998719 0.994832 0.883891 0.986806 0.983035 0.971943 0.998794 0.999275 0.999381 0.999220 0.999622 0.998621 0.999327 0.999391 0.997459 0.993343 0.990737 0.998888 0.995416 0.993887 0.998904 0.999403 0.999758 0.999695 0.999420 0.997994 0.988359 0.999057 0.998583 0.998118 0.999051 0.998376 0.997485 0.992837 0.998585 0.972495 0.998109 0.996727 0.996249 0.982514 0.997572 0.999208 0.999248 0.999384 0.981854 0.998387 0.997231 0.999214 0.997196 0.998349 0.999348 0.999434 0.998901 0.975310 0.999538 0.999644 0.998877 0.999490 0.997636 0.998526 0.998926 0.997742 0.999493 
0.910535 0.999735 0.953849 0.996092 0.999722 0.999981 0.995757 0.941261 0.989924 0.999541 0.998524 1.000000 1.000000 1.000000 1.000000 1.000000 1.000000 1.000000 1.000000 1.000000 1.000000 1.000000 1.000000 1.000000 1.000000 1.000000 1.000000 1.000000 1.000000 1.000000 1.000000 1.000000 1.000000 1.000000 1.000000 1.000000 1.000000 1.000000 1.000000 1.000000 1.000000 1.000000 1.000000 1.000000 1.000000 1.000000 1.000000 1.000000 1.000000 1.000000 1.000000 1.000000 1.000000 1.000000 1.000000 1.000000 1.000000 1.000000 0.999999 1.000000 1.000000 1.000000 1.000000 0.999999 0.999999 0.999971 0.999997 0.999999 0.999960 0.999999 1.000000 1.000000 1.000000 0.999995 1.000000 1.000000 1.000000 0.999984 0.999951 0.999996 1.000000 0.999999 0.999999 1.000000 1.000000 1.000000 0.999999 1.000000 1.000000 1.000000 1.000000 1.000000 1.000000 0.999999 1.000000 0.999999 1.000000 0.999993 0.999987 1.000000 1.000000 0.999997 0.999997 0.999993 1.000000 0.999999 1.000000 0.999987 0.999991 0.999995 0.999998 0.999994 0.999998 0.999994 0.999996 0.999999 0.999998 0.999997 1.000000 0.999999 1.000000 1.000000 1.000000 1.000000 1.000000 1.000000 0.999999 1.000000 1.000000 1.000000 0.999999 0.999958 0.999998 0.999997 0.999999 1.000000 1.000000 0.999999 1.000000 1.000000 1.000000 1.000000 1.000000 1.000000 1.000000 1.000000 1.000000 1.000000 1.000000 1.000000 1.000000 0.999999 0.999993 0.999999 0.999997 1.000000 0.999999 1.000000 1.000000 1.000000 1.000000 1.000000 1.000000 1.000000 0.999967 0.999766 0.999991 1.000000 0.999998 0.999998 0.999990 0.999999 0.999998 1.000000 1.000000 0.999999 0.999997 0.999992 0.999994 0.999986 0.999987 0.999971 1.000000 1.000000 1.000000 1.000000 0.999999 1.000000 1.000000 1.000000 1.000000 1.000000 1.000000 1.000000 1.000000 1.000000 0.999999 1.000000 1.000000 1.000000 1.000000 0.999998 0.999912 0.982818 0.999418 0.999252 0.999805 0.999974 1.000000 0.998756 0.999861 0.999999 0.999999 0.999190 0.999990 1.000000 1.000000 1.000000 0.999999 0.999999 1.000000 1.000000 1.000000 0.999997 0.985274 0.923708 0.987818 0.999999 0.999997 0.991016 
0.992334 0.999316 0.997545 0.994966 0.997092 0.996403 0.998208 0.997850 0.994363 0.998650 0.998276 0.997527 0.994927 0.998194 0.996931 0.997295 0.998771 0.998110 0.997617 0.996588 0.995604 0.997025 0.998232 0.994575 0.998959 0.995717 0.997535 0.998985 0.997122 0.998133 0.996330 0.996125 0.995974 0.994891 0.997325 0.995316 0.994348 0.998190 0.997676 0.997601 0.995533 0.997424 0.996006 0.994497 0.995508 0.995769 0.994986 0.995346 0.995490 0.995778 0.995726 0.997490 0.996825 0.996456 0.992077 0.966656 0.993446 0.995311 0.986572 0.991190 0.995952 0.996036 0.995269 0.993082 0.991408 0.993371 0.993802 0.993350 0.994034 0.994284 0.992384 0.994539 0.991728 0.996254 0.994763 0.994562 0.990168 0.994705 0.993187 0.994270 0.996543 0.993956 0.989403 0.997738 0.991277 0.992166 0.988750 0.997028 0.994317 0.996361 0.993372 0.992135 0.995233 0.993916 0.996838 0.994713 0.996195 0.996260 0.994778 0.998206 0.996472 0.997767 0.997731 0.997622 0.997524 0.997265 0.996459 0.990932 0.993657 0.993472 0.992473 0.993953 0.995138 0.990809 0.995957 0.993074 0.991800 0.992481 0.993620 0.996066 0.996124 0.996433 0.994908 0.998723 0.994933 0.994351 0.993774 0.995095 0.994313 0.997043 0.995142 0.990856 0.992079 0.993612 0.995820 0.994131 0.990997 0.993510 0.997491 0.996633 0.995342 0.993150 0.996407 0.998756 0.994124 0.993857 0.991628 0.996310 0.996576 0.993995 0.993567 0.988663 0.988497 0.996573 0.996619 0.997408 0.997419 0.996954 0.997407 0.997761 0.997171 0.991909 0.989351 0.990942 0.995226 0.995614 0.994448 0.994479 0.993375 0.995020 0.988625 0.987349 0.996819 0.997173 0.996371 0.996512 0.992254 0.996394 0.993347 0.986861 0.997499 0.998332 0.992183 0.991212 0.993780 0.992513 0.963615 0.992806 0.997976 0.997477 0.991035 0.995086 0.998002 0.995144 0.996855 0.996685 0.997460 0.997109 0.996880 0.991194 0.993980 0.997130 0.996738 0.997162 0.997699 0.997708 0.997121 0.996692 0.997313 0.997380 0.997583 0.997194 0.997073 0.995206 0.997075 0.996332 0.993483 0.992868 0.998005 0.996948 0.996825 0.994773 0.997381 0.996948 0.997718 0.995963 0.993270 0.994898 0.997309 0.996334 0.996404 0.993095 0.993962 0.990562 0.998120 0.998417 0.998698 0.995374 0.993700 0.994948 0.995174 0.995746 0.995233 0.996366 0.998088 0.995162 0.995009 0.992145 0.994385 0.993325 0.992104 0.978477 0.997200 
0.556914 0.783748 0.929356 0.993679 0.447346 0.915244 0.868493 0.941550 0.964280 0.877036 0.840909 0.906995 0.896471 0.975388 0.993787 0.996258 0.997823 0.933462 0.932215 0.954533 0.974233 0.889734 0.873628 0.931155 0.985851 0.892933 0.845995 0.988709 0.971426 0.983409 0.980045 0.971896 0.947737 0.986336 0.978438 0.944219 0.993658 0.982872 0.973545 0.945332 0.909524 0.978873 0.930353 0.988895 0.960744 0.993138 0.987978 0.998583 0.991136 0.973854 0.990866 0.993301 0.975282 0.991162 0.989886 0.972743 0.969079 0.908974 0.987374 0.988888 0.969026 0.953990 0.925269 0.863758 0.993753 0.962390 0.986233 0.997434 0.999776 0.986727 0.982696 0.972840 0.948478 0.971669 0.993097 0.995039 0.998812 0.998210 0.972143 0.972939 0.991367 0.938100 0.991554 0.996581 0.998223 0.999654 0.999740 0.998684 0.998820 0.998740 0.998770 0.998310 0.997677 0.998482 0.999348 0.998849 0.998774 0.999059 0.999012 0.998672 0.998181 0.999232 0.999123 0.997917 0.998829 0.998479 0.999372 0.999355 0.905900 0.962220 0.956189 0.988642 0.998295 0.991989 0.990863 0.965557 0.957745 0.928258 0.922854 0.988217 0.997193 0.937889 0.954333 0.975299 0.968961 0.903026 0.974208 0.994855 0.969443 0.931491 0.931009 0.913671 0.966203 0.843338 0.879614 0.955275 0.908208 0.985672 0.985173 0.764301 0.960944 0.949300 0.934524 0.938545 0.919273 0.985128 0.984256 0.939264 0.999286 0.987535 0.982623 0.941042 0.994254 0.975332 0.922235 0.951050 0.988478 0.919254 0.989866 0.998084 0.997284 0.988912 0.984561 0.982935 0.994549 0.995435 0.994693 0.994816 0.997766 0.988389 0.997787 0.997551 0.995352 0.997679 0.998411 0.998601 0.997460 0.998856 0.992579 0.977966 0.921428 0.941826 0.979807 0.996773 0.986071 0.986872 0.972611 0.993436 0.995337 0.980279 0.950945 0.992512 0.945602 0.758196 0.892001 0.814725 0.700852 0.683979 0.576031 0.961129 0.956052 0.929937 0.945694 0.991839 0.981916 0.951123 0.992914 0.982188 0.996468 0.995315 0.988907 0.979937 0.985655 0.996862 0.996909 0.981106 0.986634 0.976370 0.996002 0.989963 0.884643 0.968640 0.982168 0.997814 0.983347 
0.999830 0.999835 0.999900 0.999896 0.999761 0.999614 0.999519 0.999972 0.999951 0.999973 0.999964 0.999931 0.999703 0.999449 0.999857 0.999689 0.999254 0.999673 0.998749 0.999723 0.998707 0.999596 0.999909 0.998974 0.997589 0.998838 0.998381 0.999927 0.999944 0.999510 0.999507 0.999576 0.999206 0.999842 0.999528 0.998436 0.997168 0.999698 0.995643 0.993839 0.991675 0.999798 0.996704 0.999236 0.990682 0.999286 0.995900 0.999360 0.999671 0.999805 0.999796 0.998299 0.998476 0.999412 0.999261 0.998237 0.999758 0.985665 0.999756 0.997713 0.997297 0.989016 0.991924 0.999518 0.995876 0.999016 0.998800 0.988505 0.999933 0.999418 0.999958 0.999105 0.996605 0.999727 0.999834 0.999612 0.997668 0.998829 0.999415 0.999946 0.999865 0.999888 0.999696 0.999960 0.999530 0.998770 0.996385 0.999175 0.999290 
0.857183 0.680800 0.950489 0.915655 0.736155 0.731370 0.779295 0.723312 0.791053 0.797079 0.723856 0.697546 0.673802 0.825684 0.900613 0.874916 0.936878 0.810261 0.836205 0.854010 0.876473 0.930560 0.981504 0.937970 0.938682 0.855095 0.907323 0.959988 0.920838 0.955991 0.883717 0.955412 0.907650 0.967495 0.886634 0.831865 0.825937 0.849712 0.849090 0.975111 0.954120 0.961753 0.961490 0.948526 0.981647 0.911050 0.945887 0.962227 0.964859 0.911598 0.961756 0.724071 0.936061 0.918343 0.878767 0.910549 0.941250 0.925100 0.951775 0.925742 0.995913 0.929153 0.958554 0.961972 0.938925 0.425585 0.860118 0.899622 0.921451 0.732545 0.776626 0.895166 0.960281 0.921637 0.907366 0.948999 0.958025 0.965864 0.951109 0.937951 0.935146 0.944452 0.929281 0.958047 0.948187 0.955872 0.978747 0.939214 0.851286 0.940007 0.931829 0.944037 0.943210 0.956584 0.960204 0.909712 0.921585 0.900938 0.948308 0.925338 0.931341 0.916499 0.945502 0.737502 0.674899 0.917323 0.931336 0.926431 0.888755 0.914495 0.906846 0.884344 0.853614 0.860684 0.752153 0.818178 0.918542 0.924785 0.916787 0.923624 0.920018 0.917663 0.992939 0.816306 0.912953 0.861467 0.880731 0.901569 0.926109 0.895513 0.869664 0.859360 0.866110 0.901053 0.922470 0.952506 0.891244 0.869778 0.945859 0.923320 0.925323 0.868038 0.810039 0.886752 0.765351 0.768162 0.756448 0.798652 0.699532 0.993356 0.959248 0.909337 0.940174 0.801736 0.671258 0.604852 0.564274 0.636816 0.568415 0.696179 0.727507 0.803901 0.800551 0.822598 0.779205 0.816834 0.827841 0.777527 0.956873 0.939696 0.958621 0.887396 0.922775 0.947793 0.938527 0.940609 0.849920 0.908890 0.904773 0.890284 0.915548 0.909866 0.927758 0.928971 0.941598 0.933748 0.942060 0.930802 
0.999621 0.999998 0.999949 0.999402 0.999968 0.999963 0.999998 0.999995 0.999998 0.999997 0.999999 0.999999 0.999999 0.999978 0.999313 0.999738 0.999998 0.999932 0.999600 0.999263 0.999436 0.999313 0.999476 0.997076 0.998546 0.997347 0.998016 0.997640 0.999989 1.000000 1.000000 1.000000 0.999997 0.999615 0.999998 1.000000 0.999992 0.999897 0.999999 0.999989 0.999295 0.996951 0.999913 0.999781 0.998939 0.999977 0.999988 0.997134 0.998029 0.996152 0.999984 0.999999 1.000000 0.999986 0.999553 0.998010 0.998652 0.998372 0.998488 0.997035 0.999668 0.999990 0.999998 0.999998 0.999997 0.999995 0.999993 0.999995 0.999421 0.992819 0.997408 0.997564 0.997189 0.997740 0.996551 0.997499 0.997541 0.997958 0.999272 1.000000 0.999998 0.999994 0.999719 0.999117 0.999864 0.999993 0.999590 0.999979 0.999663 0.999969 0.999990 0.999909 0.994786 0.999855 0.994692 0.996389 0.999887 0.999938 0.997475 0.999884 0.999890 0.999681 0.999739 0.999009 0.992495 0.999881 0.999991 0.999997 0.999864 0.999999 0.999999 0.999999 1.000000 0.999998 0.999999 0.999998 0.999956 0.999994 0.999964 0.999731 0.999675 0.999950 0.999900 0.999671 0.999992 0.999998 1.000000 0.999999 1.000000 1.000000 1.000000 1.000000 0.999995 0.999991 0.999363 0.999693 0.999938 0.999993 0.999869 0.995842 0.998806 0.999945 0.999645 0.999767 0.994194 0.996980 0.999990 1.000000 0.999991 1.000000 0.999997 1.000000 1.000000 1.000000 0.999999 0.997290 0.997605 0.997804 0.996910 0.998622 0.997592 0.997748 0.998738 0.998099 0.999315 0.999288 0.999482 0.999233 0.999266 0.999963 0.999999 0.999990 0.995108 0.993733 0.992260 0.999913 0.993246 0.999458 0.999997 0.999569 0.999935 0.999179 0.998656 0.999823 0.997628 0.999686 0.999847 0.995765 0.998120 0.999930 0.999524 0.992508 0.998274 0.995625 0.999911 0.993902 0.996658 0.996343 0.992801 0.997727 0.990982 0.991209 0.999998 0.998923 1.000000 0.999992 
0.999980 0.999999 1.000000 1.000000 1.000000 1.000000 1.000000 1.000000 1.000000 1.000000 1.000000 1.000000 1.000000 1.000000 1.000000 1.000000 1.000000 1.000000 1.000000 1.000000 1.000000 1.000000 1.000000 1.000000 1.000000 1.000000 1.000000 1.000000 1.000000 1.000000 1.000000 1.000000 1.000000 1.000000 1.000000 1.000000 1.000000 1.000000 1.000000 1.000000 1.000000 0.999987 1.000000 1.000000 1.000000 0.999975 1.000000 1.000000 1.000000 1.000000 1.000000 1.000000 1.000000 1.000000 1.000000 1.000000 1.000000 1.000000 1.000000 1.000000 1.000000 1.000000 1.000000 1.000000 1.000000 1.000000 1.000000 1.000000 1.000000 1.000000 1.000000 1.000000 1.000000 1.000000 1.000000 1.000000 0.999989 0.999997 0.999995 1.000000 1.000000 0.999998 1.000000 1.000000 0.999940 0.999988 1.000000 0.999998 0.999992 0.999999 0.999999 0.999997 0.999998 1.000000 0.999999 1.000000 1.000000 0.999999 1.000000 1.000000 1.000000 1.000000 0.999999 0.999964 1.000000 0.999998 0.999998 0.999999 0.999995 0.999999 0.999999 0.999999 0.999999 0.999997 0.999999 0.999999 1.000000 0.999999 0.999999 1.000000 0.999996 0.999987 0.999995 0.999894 0.998864 0.999999 0.999999 0.999979 0.999958 0.999999 1.000000 0.999998 1.000000 1.000000 0.999974 0.999997 0.999995 0.999985 0.999999 1.000000 1.000000 1.000000 1.000000 0.999999 0.999995 1.000000 1.000000 1.000000 0.984890 1.000000 1.000000 1.000000 1.000000 1.000000 1.000000 0.999999 0.999998 0.999975 1.000000 1.000000 1.000000 0.999992 0.999998 1.000000 0.999998 0.999999 0.999997 0.999999 1.000000 1.000000 1.000000 0.999991 0.999982 0.999998 0.999999 0.999987 0.999999 1.000000 1.000000 1.000000 1.000000 1.000000 1.000000 1.000000 0.999018 0.999885 0.999947 0.999961 0.999985 0.999960 0.999998 0.999968 0.999967 0.999997 0.999997 0.999905 0.999984 0.999899 0.999999 1.000000 1.000000 1.000000 1.000000 1.000000 1.000000 1.000000 1.000000 1.000000 1.000000 
0.166037 0.995222 0.963913 0.985221 0.996009 0.996009 0.996009 0.996009 0.908021 0.994881 0.990939 0.987682 0.833668 0.692436 0.967542 0.996931 0.975021 0.952783 0.816800 0.681415 0.531338 0.822319 0.815525 0.849802 0.906208 0.974505 0.936393 0.957663 0.940127 0.890187 0.915563 0.876448 0.925726 0.949234 0.930145 0.943465 0.974314 0.978928 0.978397 0.993576 0.996115 0.996182 0.998453 0.984358 0.999220 0.943349 0.983934 0.857009 0.014834 0.918926 0.409417 0.848853 0.483914 0.803657 0.995214 0.379531 0.464683 0.996696 0.946783 0.992805 0.948500 0.986966 0.872736 0.978267 0.936577 0.933095 0.808036 0.845940 0.960800 0.910366 0.830902 0.983840 0.965270 0.857408 0.878928 0.938078 0.836430 0.891369 0.908206 0.868543 0.928633 0.891858 0.931651 0.810750 0.977013 0.967344 0.979262 0.898606 0.774232 0.966213 0.986002 0.810683 0.981529 0.968889 0.966479 0.984384 0.994233 0.996750 0.919253 0.973769 0.992648 0.955286 0.960908 0.964595 0.961293 0.991933 0.997045 0.998931 0.997846 0.985255 0.994361 0.987698 0.993598 0.998383 0.999869 0.999867 0.999809 0.999816 0.999868 0.998959 0.963396 0.961829 0.975967 0.984915 0.978479 0.992814 0.984671 0.982875 0.979008 0.975913 0.981371 0.978271 0.978629 0.964992 0.972508 0.998666 0.999638 0.999036 0.999721 0.999901 0.993099 0.994671 0.998825 0.998716 0.999444 0.998093 0.987510 0.999006 0.999319 0.999851 0.921001 0.611179 0.801686 0.992789 0.995929 0.999190 0.998548 0.997321 0.994549 0.998191 0.998088 0.999617 0.997627 0.183493 0.663267 0.366010 0.946109 0.700773 0.954717 0.820128 0.993736 0.017266 0.131168 0.936611 0.941424 0.994007 0.999112 0.996648 0.561554 0.954111 0.963922 0.997005 0.976200 0.981761 0.998921 0.998308 0.893307 0.983466 0.997568 0.996009 0.996009 0.996009 0.931011 0.985225 0.797537 0.989531 0.996801 0.985968 0.969513 0.991793 0.939160 0.951220 0.971993 0.767800 0.994080 0.979527 0.975113 0.959593 0.967098 0.961434 0.981633 0.980327 0.813932 0.696030 0.854909 0.981992 0.981498 0.991552 0.970019 0.959005 0.969615 0.976411 0.976828 0.982640 0.990850 0.947131 0.627035 0.864788 0.937914 0.970156 0.968095 0.932864 0.891834 0.904280 0.938417 0.989880 0.909938 0.987851 0.971045 0.998179 
0.999999 0.970612 0.931360 0.830617 0.940505 0.937801 0.933019 0.970828 0.828877 0.868377 0.976751 0.898877 0.958207 0.574551 0.813526 0.829018 0.650649 0.640594 0.624794 0.702115 0.751180 0.691694 0.916765 0.790975 0.941180 0.946875 0.922717 0.934584 0.774344 0.935196 0.655346 0.731040 0.631284 0.624308 0.731313 0.712044 0.534530 0.431045 0.833776 0.974810 0.988864 0.983599 0.880485 0.988324 0.638252 0.527192 0.693372 0.801148 0.934751 0.767835 0.792012 0.829565 0.749004 0.813275 0.778021 0.736649 0.791875 0.703760 0.794866 0.781723 0.747598 0.963082 0.938262 0.901471 0.958391 0.674647 0.600846 0.798814 0.627754 0.831461 0.704020 0.603875 0.649706 0.641739 0.645068 0.812887 0.978495 0.853417 0.922675 0.983128 0.983949 0.969260 0.959119 0.918796 0.955616 0.896398 0.887501 0.908860 0.983856 0.935000 0.852558 0.893286 0.896779 0.938307 0.890688 0.874757 0.986477 0.961156 0.940132 0.911495 0.865883 0.932252 0.792480 0.876896 0.926852 0.728199 0.652813 0.720094 0.596114 0.667600 0.512847 0.704710 0.622751 0.786736 0.857242 0.941279 0.971519 0.871704 0.905529 0.827790 0.815478 0.830384 0.751799 0.732283 0.729347 0.762922 0.701161 0.531695 0.591502 0.710543 0.796489 0.433726 0.924451 0.756259 0.806249 0.814585 0.928046 0.580651 0.914675 0.700900 0.634847 0.684577 0.722168 0.886022 0.668520 0.808173 0.649612 0.892159 0.909457 0.921252 0.824500 0.845248 0.821687 0.818259 0.901760 0.837615 0.834661 0.969086 0.549983 0.389889 0.492141 0.493886 0.385788 0.868240 0.945620 0.594186 0.773662 0.700030 0.968893 0.733636 0.826691 0.908267 0.906039 0.979288 0.906276 0.971475 0.797203 0.874523 0.946024 0.961835 0.764248 0.961220 0.859981 0.963897 0.412298 0.834007 0.888325 0.928386 0.952892 0.925956 0.939299 0.940338 0.897315 0.957827 0.865209 0.844367 0.698847 0.621204 0.459025 0.579002 0.471678 0.714033 0.722905 0.545892 0.936636 0.880141 0.953987 0.948566 0.989713 0.996268 0.991429 0.949449 0.763697 0.673462 0.718744 0.576135 0.846636 0.926313 0.951499 0.981205 0.790969 0.611338 
0.999000 0.654399 0.337547 0.273580 0.387728 0.501423 0.609179 0.653911 0.753502 0.916593 0.900641 0.925340 0.877114 0.900717 0.850480 0.916130 0.856237 0.964389 0.890083 0.883697 0.880795 0.848406 0.952808 0.897571 0.926226 0.911722 0.901702 0.892161 0.900990 0.882403 0.869373 0.935206 0.893987 0.865905 0.958857 0.883724 0.872289 0.857554 0.866950 0.879358 0.884764 0.864412 0.852630 0.900956 0.869288 0.923228 0.905989 0.882555 0.881201 0.867306 0.884381 0.912187 0.979899 0.986510 0.893474 0.894264 0.894766 0.914538 0.936110 0.925080 0.926357 0.952608 0.940398 0.896448 0.896711 0.935429 0.951170 0.899072 0.893102 0.914169 0.974383 0.954121 0.897961 0.912813 0.907341 0.914056 0.912936 0.930025 0.917689 0.923368 0.938533 0.940333 0.947163 0.939135 0.946240 0.951712 0.977088 0.891953 0.907980 0.918728 0.902692 0.909671 0.896908 0.913262 0.939069 0.909554 0.908781 0.958044 0.902803 0.908237 0.947241 0.886671 0.882331 0.903303 0.946394 0.892398 0.913443 0.927947 0.910695 0.945980 0.891876 0.869906 0.840206 0.867694 0.866460 0.874265 0.917694 0.824810 0.816792 0.834462 0.843825 0.864542 0.878370 0.898050 0.959970 0.886041 0.886633 0.889177 0.895099 0.878031 0.901867 0.906832 0.911656 0.900284 0.919272 0.901497 0.985327 0.897869 0.896576 0.911988 0.903818 0.877061 0.874867 0.936284 0.978802 0.882904 0.880940 0.906805 0.932111 0.906348 0.913975 0.915134 0.904668 0.905767 0.887512 0.917026 0.900301 0.907622 0.913879 0.903318 0.918008 0.906765 0.907340 0.904922 0.966377 0.942385 0.945038 0.929345 0.984036 0.916641 0.895498 0.871346 0.861628 0.888299 0.900172 0.933616 0.895370 0.853320 0.850381 0.828754 0.980963 0.857937 0.958055 0.999330 0.923155 0.869875 0.817774 0.748120 0.743114 0.826624 0.823103 0.854926 0.850385 0.870853 0.818453 0.844281 0.857738 0.836412 0.880627 0.914138 0.875064 0.981586 0.799421 0.924439 0.845980 0.876243 0.830402 0.920723 0.725193 0.804925 0.814241 0.712680 0.713142 
0.979241 0.970638 0.932212 0.985892 0.992184 0.996469 0.991429 0.926207 0.973117 0.978325 0.975390 0.975785 0.828116 0.793906 0.783207 0.800998 0.842316 0.855278 0.880132 0.843779 0.825332 0.875311 0.924990 0.956647 0.878028 0.917309 0.936622 0.989409 0.998772 0.999211 0.994083 0.856275 0.854901 0.841293 0.903918 0.850130 0.862005 0.840565 0.857042 0.812030 0.815881 0.840238 0.811986 0.907400 0.928703 0.748273 0.938785 0.925329 0.862506 0.897631 0.944206 0.888037 0.938884 0.783727 0.855792 0.932183 0.957708 0.983515 0.728133 0.834776 0.818143 0.948061 0.922395 0.906530 0.830961 0.980729 0.834410 0.840507 0.929359 0.980333 0.956014 0.975192 0.935544 0.892251 0.870407 0.797375 0.906561 0.772051 0.768030 0.919931 0.836573 0.889626 0.809606 0.764622 0.799522 0.729923 0.778016 0.837978 0.891752 0.859833 0.875705 0.915402 0.937104 0.952476 0.879620 0.910475 0.958960 0.925319 0.928103 0.933885 0.948877 0.832481 0.772652 0.949391 0.998169 0.991969 0.994248 0.999361 0.998343 0.997740 0.996966 0.996797 0.879133 0.975644 0.987758 0.833377 0.888019 0.948094 0.975139 0.979492 0.958131 0.980473 0.905766 0.943225 0.938818 0.877351 0.810117 0.785309 0.826365 0.899214 0.863932 0.888208 0.905886 0.982932 0.900209 0.918449 0.954829 0.993246 0.996782 0.991893 0.969048 0.997679 0.993650 0.930317 0.941320 0.933929 0.991416 0.952548 0.906388 0.981949 0.981010 0.989570 0.990873 0.982390 0.983811 0.986255 0.862095 0.923832 0.878551 0.850855 0.840424 0.866222 0.841047 0.851414 0.896616 0.895639 0.943713 0.929515 0.945406 0.977024 0.969095 0.961985 0.936302 0.722117 0.975020 0.974532 0.989598 0.990240 0.982156 0.994353 0.994398 0.991990 0.985238 0.993167 0.989982 0.962644 0.869216 0.849519 0.814955 0.947578 0.938699 0.946334 0.905830 0.918876 0.948644 0.830361 0.840657 0.947642 0.969449 0.945072 0.960945 0.866447 
0.977610 0.961333 0.956434 0.927971 0.943104 0.958555 0.956400 0.920423 0.897985 0.867503 0.881950 0.897093 0.868771 0.897514 0.816430 0.935495 0.949620 0.955837 0.885438 0.870709 0.855853 0.836711 0.934471 0.906037 0.934242 0.940303 0.940700 0.947115 0.986031 0.968489 0.980152 0.980138 0.971555 0.969072 0.966787 0.987608 0.988367 0.974462 0.948973 0.962245 0.966494 0.974207 0.932674 0.934467 0.936225 0.921446 0.929693 0.930227 0.933337 0.921453 0.922357 0.932638 0.922464 0.907324 0.895225 0.902201 0.886116 0.869773 0.892207 0.948114 0.998066 0.994248 0.996519 0.999027 0.999996 0.930858 0.854385 0.916344 0.921867 0.905533 0.919591 0.898154 0.867911 0.833539 0.822650 0.824361 0.806949 0.956053 0.839807 0.810035 0.810245 0.815994 0.811880 0.815316 0.788881 0.684974 0.945698 0.946708 0.938199 0.931865 0.952485 0.953965 0.960977 0.932102 0.942360 0.936579 0.952576 0.949056 0.937176 0.971048 0.922362 0.872213 0.902005 0.904851 0.858396 0.928461 0.906189 0.926119 0.929022 0.976242 0.932120 0.978849 0.935706 0.926135 0.911898 0.938461 0.913862 0.926119 0.914173 0.928207 0.942253 0.952117 0.916898 0.927381 0.897836 0.946985 0.923910 0.945583 0.968302 0.892009 0.838276 0.845652 0.866589 0.890241 0.845484 0.824368 0.790518 0.814490 0.802312 0.777645 0.806500 0.896613 0.981162 0.940556 0.951137 0.955681 0.957662 0.962605 0.961384 0.955046 0.946880 0.886764 0.856655 0.882115 0.814129 0.860620 0.929960 0.898941 0.912796 0.945565 0.959115 0.821940 0.863748 0.978837 0.928863 0.949557 0.904444 0.883908 0.956281 0.944412 0.939271 0.912484 0.947364 0.854846 0.871217 0.922882 0.903585 0.896054 0.900503 0.755189 0.975648 0.904775 0.885397 0.941042 0.915874 0.930247 0.922510 0.917375 0.956781 0.914518 0.935543 0.898501 0.933453 0.955033 0.943420 0.942654 0.947676 0.919917 0.951741 0.936634 0.965900 0.940614 0.935341 0.951734 0.969487 0.960701 0.962563 0.860466 
0.025159 0.885837 0.999096 0.999712 0.999722 0.989776 0.943077 0.934593 0.824577 0.924125 0.911965 0.913145 0.842455 0.970436 0.987388 0.998771 0.974232 0.907024 0.956903 0.997765 0.996203 0.999128 0.999635 0.999746 0.999892 0.999874 0.998867 0.998970 0.999292 0.999875 0.999942 0.999966 0.999981 0.999979 0.999981 0.999982 0.999768 0.989917 0.999944 0.999967 0.999961 0.999921 0.999951 0.999686 0.999358 0.966676 0.910318 0.992161 0.959620 0.758835 0.922557 0.961712 0.979291 0.995687 0.999782 0.998860 0.886243 0.840109 0.894270 0.900541 0.953810 0.755200 0.944550 0.950731 0.999713 0.999876 0.999682 0.996429 0.983287 0.954168 0.937656 0.998506 0.997448 0.718705 0.787279 0.772123 0.787538 0.978939 0.997745 0.963991 0.797631 0.866795 0.839786 0.864268 0.994655 0.999173 0.947642 0.954828 0.964448 0.981143 0.916181 0.953249 0.999875 0.999964 0.999973 0.999978 0.999976 0.999974 0.999943 0.999973 0.999977 0.999973 0.999957 0.999966 0.999976 0.999974 0.999975 0.999974 0.999977 0.999977 0.999490 0.999918 0.999740 0.999637 0.999701 0.999975 0.999973 0.999872 0.973129 0.995196 0.996789 0.996342 0.996657 0.995532 0.999737 0.999195 0.999227 0.999947 0.999204 0.997071 0.981626 0.993581 0.960050 0.929992 0.982545 0.999934 0.998640 0.993728 0.853552 0.996896 0.999594 0.999971 0.999941 0.941363 0.999161 0.999358 0.926495 0.999306 0.994812 0.996455 0.999949 0.994430 0.853609 0.982724 0.999853 0.999978 0.999745 0.999972 0.999971 0.999976 0.999975 0.999976 0.999976 0.999950 0.999902 0.999968 0.997923 0.996661 0.999952 0.999968 0.999964 0.999654 0.873225 0.626930 0.784231 0.999762 0.999035 0.999851 0.876158 0.802138 0.762282 0.927201 0.999383 0.978356 0.999449 0.999964 0.999972 0.999973 0.999896 0.999614 0.947788 0.915483 0.970839 0.999924 0.999978 0.999976 0.999979 0.999978 0.999974 0.999964 0.999964 0.990708 0.997349 0.999973 0.999972 0.999956 0.999967 0.999988 0.999371 0.999974 0.999979 0.999916 0.999948 0.999807 0.997821 0.996028 0.994250 0.997047 0.997177 0.999335 0.999925 0.856004 0.903151 0.996211 0.995450 0.979625 0.883462 0.999976 0.999023 0.998907 0.956894 0.824742 0.952474 0.760740 0.999409 0.999814 0.999978 0.999968 0.999968 0.999984 0.999970 0.999975 0.999975 0.999973 0.999968 0.999972 0.999931 0.999959 0.999970 0.999962 0.999873 0.994373 
0.999967 0.999999 0.999999 0.999998 0.999999 1.000000 0.999999 0.999999 0.999999 0.999999 0.999999 0.999999 0.999999 0.999999 0.999999 0.999999 0.999999 0.999999 0.999999 0.999999 0.999999 0.999999 1.000000 1.000000 1.000000 0.999967 0.999952 0.999984 0.999982 0.999995 0.999998 0.999998 0.999999 0.999999 1.000000 1.000000 0.999999 0.999997 1.000000 0.999999 0.999999 0.999999 0.999999 1.000000 1.000000 1.000000 1.000000 1.000000 0.999999 1.000000 0.999999 0.999999 1.000000 0.999999 1.000000 0.999996 0.999999 0.999998 0.999999 0.999999 0.999999 0.999999 0.999999 0.999999 1.000000 0.999999 0.999999 0.999999 0.999998 0.999999 1.000000 0.999999 0.999999 0.999999 0.999999 0.999997 0.999999 1.000000 1.000000 1.000000 1.000000 0.999999 1.000000 0.999999 0.999999 0.999997 0.999999 0.999999 1.000000 0.999999 0.999999 0.999999 0.999999 0.999999 0.999996 0.999998 0.999998 0.999987 0.999997 0.999992 0.999997 0.999995 0.999998 0.999997 0.999995 0.999997 0.999998 0.999998 0.999996 0.999964 0.999998 0.999990 0.999998 0.999998 0.999998 0.999999 0.999999 0.999998 0.999998 0.999999 0.999999 1.000000 1.000000 1.000000 0.998635 0.999963 1.000000 1.000000 0.999999 0.999999 0.999986 0.999999 0.999999 0.999998 0.999998 0.999999 0.999998 0.999999 0.999997 0.999997 0.999999 0.999999 0.999999 0.999993 1.000000 0.999998 0.999987 0.999994 0.999997 0.999998 0.999998 0.999998 0.999998 0.999999 0.999998 0.999999 0.999998 0.999995 0.999983 0.999993 0.999998 0.999999 0.999999 0.999998 0.999999 0.999997 0.999997 0.999999 0.999998 0.999998 0.999999 0.999998 0.999998 0.999996 0.999998 0.999997 0.999997 0.999997 0.999996 0.999994 0.999996 0.999980 0.999942 0.999986 0.999996 0.999998 1.000000 0.999999 0.999999 0.999996 0.999999 0.999993 0.999988 0.999976 0.999980 0.999906 0.999991 0.999995 0.999998 0.999999 1.000000 1.000000 0.999994 0.999998 0.999996 0.999997 0.999998 
0.995520 0.998770 0.995340 0.999442 0.998010 0.998042 0.998920 0.998285 0.998349 0.978089 0.995679 0.991520 0.994496 0.996170 0.998408 0.988812 0.965820 0.999199 0.999108 0.998140 0.994382 0.997341 0.994449 0.998700 0.991184 0.999444 0.997772 0.999354 0.998106 0.999771 0.996866 0.986019 0.999419 0.998749 0.999357 0.997565 0.990777 0.979494 0.964238 0.970915 0.972706 0.952731 0.904367 0.998251 0.998763 0.998966 0.998682 0.998349 0.998879 0.998871 0.997175 0.896790 0.958838 0.943821 0.908626 0.944824 0.977142 0.983379 0.999754 0.999797 0.999798 0.998993 0.997884 0.965980 0.987393 0.999346 0.999464 0.999297 0.985211 0.975645 0.975821 0.999011 0.998676 0.998935 0.998260 0.994625 0.998203 0.999375 0.998467 0.999101 0.930280 0.959794 0.957780 0.977865 0.889461 0.999691 0.995277 0.999481 0.999043 0.997890 0.983443 0.979421 0.972657 0.904152 0.904552 0.896069 0.959494 0.963191 0.951378 0.997407 0.997578 0.997909 0.985405 0.987809 0.998514 0.998091 0.996838 0.996110 0.998218 0.998869 0.999726 0.998274 0.998755 0.816322 0.841310 0.905751 0.958953 0.997126 0.998638 0.999023 0.999224 0.998631 0.999023 0.998149 0.998106 0.997812 0.999522 0.999100 0.997122 0.998550 0.999023 0.999458 0.983432 0.953059 0.992734 0.990267 0.974104 0.990379 0.989680 0.997037 0.997229 0.993954 0.995595 0.995379 0.982788 0.982621 0.979996 0.985733 0.992610 0.975919 0.991856 0.994072 0.991533 0.996843 0.996358 0.965231 0.899218 0.919946 0.967077 0.897237 0.994704 0.995970 0.993653 0.999214 0.999260 0.997588 0.997972 0.998752 0.999406 0.998933 0.999156 0.997881 0.845968 0.999638 0.999578 0.998831 0.956275 0.822660 0.815171 0.998911 0.998997 0.999358 0.930703 0.947717 0.916597 0.875541 0.854908 0.900691 0.884971 0.884990 0.886265 0.857853 0.819124 0.981004 0.999751 0.999235 0.999812 0.691810 0.976597 0.946445 0.952839 0.999115 0.994398 0.997918 0.999023 
0.999929 0.999996 0.999985 0.999944 0.999962 0.999925 0.999934 0.999954 0.999986 0.999985 0.999988 0.999984 0.999993 0.999986 0.999980 0.999972 0.999931 0.999943 0.999948 0.999954 0.999970 0.999973 0.999976 0.999923 0.999970 0.999955 0.999966 0.999851 0.999954 0.999901 0.999941 0.999877 0.999937 0.999973 0.999653 0.999942 0.999307 0.999440 0.999610 0.999919 0.999946 0.999874 0.999731 0.998601 0.993259 0.997488 0.997446 0.999852 0.999908 0.999147 0.999888 0.999833 0.999724 0.999943 0.999954 0.998464 0.998286 0.998449 0.999859 0.999836 0.997748 0.999064 0.999853 0.997894 0.998601 0.998262 0.996709 0.993906 0.999627 0.999280 0.999001 0.999911 0.999492 0.998146 0.999584 0.999764 0.996382 0.930426 0.992517 0.997676 0.991366 0.977786 0.986120 0.993888 0.969224 0.999716 0.999868 0.999641 0.999697 0.999865 0.999639 0.999856 0.998214 0.999497 0.999674 0.999680 0.999774 0.999378 0.999795 0.999874 0.999687 0.999876 0.999681 0.999793 0.999902 0.999875 0.999889 0.999870 0.998276 0.992119 0.993132 0.897000 0.996319 0.996146 0.998951 0.998686 0.999370 0.999360 0.960050 0.995314 0.991312 0.948672 0.889397 0.904650 0.994099 0.999123 0.948736 0.999689 0.999891 0.999790 0.998959 0.999830 0.999764 0.999735 0.999955 0.999184 0.985313 0.998789 0.996907 0.997976 0.999093 0.999882 0.999914 0.999668 0.999833 0.999091 0.999541 0.999577 0.999774 0.999555 0.998507 0.995948 0.997348 0.996320 0.998943 0.961584 0.949306 0.994377 0.970181 0.973953 0.969069 0.937220 0.984482 0.974294 0.983768 0.984189 0.959291 0.995562 0.997674 0.992702 0.998445 0.954012 0.938077 0.993223 0.991693 0.998126 0.998657 0.998824 0.998225 0.985129 0.965330 0.998137 0.997820 0.994438 0.957597 0.999403 0.998587 0.955447 0.910929 0.818166 0.767048 0.873201 0.995440 0.997978 0.995193 0.989145 0.993714 0.990991 0.989748 0.996315 0.949303 0.993557 0.998566 0.996107 0.994754 0.977179 0.972105 0.999229 0.997523 0.975786 0.971501 0.991399 0.994433 0.999722 0.999473 0.990666 0.991653 0.990005 0.999102 0.995759 0.982301 0.998347 
0.999004 0.999981 1.000000 0.999993 0.983752 0.998503 0.999998 0.999848 0.999992 0.999996 0.999887 0.976132 0.999396 0.991947 0.986662 0.999846 0.999999 0.999997 0.999665 0.999937 0.999786 0.999760 1.000000 0.999925 0.999833 0.999714 0.999863 0.999950 1.000000 0.999992 0.999997 0.999999 0.999999 1.000000 1.000000 1.000000 1.000000 1.000000 1.000000 1.000000 1.000000 0.999999 1.000000 1.000000 1.000000 1.000000 1.000000 1.000000 1.000000 0.999999 1.000000 1.000000 1.000000 1.000000 0.999993 0.999998 0.999999 1.000000 0.999998 0.999995 0.999998 1.000000 1.000000 1.000000 1.000000 0.999999 1.000000 1.000000 1.000000 0.999971 0.999998 1.000000 1.000000 1.000000 1.000000 1.000000 1.000000 1.000000 1.000000 1.000000 1.000000 1.000000 1.000000 1.000000 1.000000 1.000000 1.000000 1.000000 1.000000 1.000000 1.000000 1.000000 1.000000 1.000000 1.000000 1.000000 1.000000 0.999995 1.000000 0.999999 1.000000 0.999987 0.999987 0.999993 0.999998 0.999814 0.999910 0.999953 0.999970 0.999913 0.999773 0.999998 0.999999 1.000000 1.000000 1.000000 0.999999 1.000000 0.999991 1.000000 1.000000 1.000000 1.000000 1.000000 1.000000 1.000000 1.000000 1.000000 1.000000 1.000000 1.000000 1.000000 1.000000 1.000000 1.000000 1.000000 1.000000 1.000000 1.000000 1.000000 1.000000 1.000000 0.999999 0.999999 1.000000 0.999999 0.999999 1.000000 0.999999 1.000000 1.000000 1.000000 0.999981 0.999925 0.999997 0.999961 0.999982 0.999932 0.999993 0.999923 0.999848 0.999998 0.999948 0.999996 0.999999 1.000000 1.000000 1.000000 1.000000 1.000000 0.999999 1.000000 1.000000 1.000000 1.000000 1.000000 1.000000 1.000000 1.000000 1.000000 1.000000 0.999998 0.999985 0.999821 0.999868 0.999946 0.999840 0.999695 0.999895 0.999974 0.999953 0.999966 0.999996 0.999976 1.000000 0.999995 0.999956 0.999999 1.000000 1.000000 0.999997 0.999999 1.000000 1.000000 1.000000 1.000000 1.000000 1.000000 1.000000 1.000000 1.000000 0.999997 0.999999 0.999999 
0.999995 0.997771 0.978790 0.993223 0.999571 0.995258 0.999867 0.994698 0.991753 0.993246 0.996270 0.985169 0.977029 0.918063 0.988188 0.973532 0.990961 0.938691 0.932694 0.945363 0.996120 0.999653 0.997953 0.995823 0.986981 0.997017 0.898085 0.936462 0.869362 0.997246 0.999751 0.998104 0.999351 0.997762 0.998714 0.996750 0.997043 0.940593 0.972995 0.961553 0.999852 0.999694 0.895678 0.953486 0.999184 0.999010 0.996561 0.679350 0.639898 0.893022 0.922909 0.992601 0.515186 0.998075 0.868950 0.938730 0.932402 0.742070 0.902266 0.947153 0.909630 0.906247 0.950236 0.800156 0.872475 0.867903 0.656248 0.605548 0.909655 0.929644 0.684674 0.919299 0.641692 0.393707 0.924820 0.938790 0.982618 0.957804 0.917453 0.705970 0.622049 0.621987 0.990548 0.931228 0.964741 0.843795 0.801075 0.872017 0.894072 0.698593 0.893733 0.832276 0.793039 0.829832 0.845378 0.528057 0.978180 0.985793 0.990782 0.917228 0.916748 0.989618 0.924956 0.930152 0.982361 0.953044 0.975720 0.866838 0.772288 0.959366 0.637012 0.744549 0.910963 0.864935 0.985344 0.901205 0.925999 0.930411 0.807581 0.927136 0.807750 0.888447 0.919166 0.837020 0.539139 0.594306 0.696313 0.945451 0.937416 0.932914 0.852700 0.790932 0.826083 0.874738 0.742312 0.926924 0.918818 0.786267 0.968679 0.895247 0.781063 0.896142 0.875831 0.838106 0.930391 0.925709 0.771861 0.789614 0.801271 0.914461 0.871911 0.833686 0.817108 0.911061 0.929272 0.893467 0.964761 0.970699 0.923747 0.981294 0.994292 0.998286 0.993209 0.901341 0.985328 0.955475 0.929469 0.952184 0.867043 0.994413 0.786805 0.875328 0.825167 0.867554 0.914348 0.801152 0.918355 0.912904 0.903703 0.900888 0.981497 0.963764 0.767166 0.795479 0.624945 0.930797 0.748846 0.780248 0.770286 0.752895 0.829255 0.487394 0.930478 0.920621 0.833939 0.910967 0.881331 0.915592 0.955506 0.909123 0.927104 0.946723 0.916045 0.940253 0.971402 0.841741 0.977039 0.893231 0.923728 0.963434 0.933290 0.946599 0.895463 0.884507 0.782396 0.717121 0.857157 0.832514 0.996392 0.997739 0.997739 
0.999756 0.999579 0.999770 0.999204 0.998589 0.999791 0.997851 0.999806 0.999560 0.999964 0.997651 0.982032 0.947626 0.971731 0.965316 0.941673 0.958253 0.976239 0.999631 0.999785 0.999771 0.999192 0.999649 0.999733 0.999700 0.999767 0.999736 0.999696 0.999751 0.999721 0.999702 0.999846 0.999763 0.999806 0.999734 0.999832 0.999742 0.999662 0.999802 0.999815 0.999691 0.999441 0.999803 0.999315 0.999895 0.999513 0.999306 0.999305 0.998521 0.998557 0.998416 0.999502 0.998813 0.999184 0.998899 0.998851 0.998780 0.998707 0.999415 0.999577 0.998624 0.999575 0.998473 0.999389 0.999137 0.998854 0.999841 0.972903 0.974113 0.972458 0.953076 0.994908 0.978305 0.966554 0.986632 0.993672 0.992211 0.999536 0.993955 0.999809 0.999798 0.999451 0.999719 0.999690 0.999852 0.999656 0.999557 0.999617 0.999602 0.999727 0.998618 0.997548 0.999808 0.999869 0.999511 0.999621 0.999639 0.999627 0.999644 0.999803 0.999738 0.999892 0.999212 0.999743 0.999607 0.999292 0.999696 0.999643 0.999425 0.999069 0.999375 0.999455 0.999667 0.999581 0.999614 0.999558 0.999670 0.999595 0.999964 0.999517 0.999456 0.999823 0.999721 0.999494 0.999617 0.999787 0.999638 0.999586 0.999506 0.999333 0.999825 0.999905 0.999753 0.999763 0.999702 0.999836 0.999564 0.999924 0.948287 0.951322 0.976531 0.970605 0.974780 0.958719 0.981950 0.983649 0.985432 0.988419 0.977509 0.996050 0.993093 0.997587 0.999691 0.999288 0.999835 0.999658 0.999858 0.999623 0.999687 0.999672 0.999772 0.999891 0.999471 0.999217 0.999454 0.999705 0.999778 0.999861 0.999788 0.999808 0.999770 0.999960 0.999885 0.999890 0.999815 0.997191 0.999177 0.998952 0.999512 0.999331 0.999479 0.999101 0.999888 0.999761 0.999087 0.998747 0.997869 0.999838 0.997270 0.999678 0.999627 0.999668 0.999701 0.999686 0.999630 0.999762 0.999704 0.998551 0.998916 0.997383 0.996094 0.985225 0.974945 0.962277 0.978517 0.968427 0.969830 0.975270 0.988571 0.989189 0.986078 0.999713 0.999240 0.998584 0.999822 0.999638 0.999483 0.999872 0.999752 0.999867 0.999745 0.999417 0.999592 
0.996328 0.995244 0.994448 0.992422 0.993028 0.997847 0.987593 0.989299 0.987737 0.989734 0.990348 0.990235 0.989530 0.989685 0.994924 0.969894 0.999706 0.984081 0.988535 0.996075 0.999674 0.997971 0.989753 0.995140 0.984186 0.994467 0.992927 0.990627 0.991322 0.990694 0.990305 0.990659 0.996051 0.990465 0.998288 0.999900 0.998528 0.992322 0.991535 0.993847 0.991621 0.991544 0.990522 0.992840 0.990601 0.989964 0.990494 0.990221 0.990429 0.990688 0.990183 0.996477 0.996594 0.993495 0.996728 0.990156 0.991030 0.990221 0.990874 0.991250 0.985830 0.990621 0.997302 0.991811 0.991151 0.990447 0.991298 0.989989 0.994492 0.991330 0.996817 0.989316 0.989621 0.989540 0.995323 0.990239 0.994382 0.990722 0.991045 0.989004 0.988879 0.989310 0.990193 0.989826 0.990343 0.989991 0.989887 0.990298 0.990401 0.998173 0.991547 0.990493 0.990421 0.990469 0.990583 0.990442 0.990261 0.994483 0.995011 0.994503 0.994277 0.994217 0.989629 0.989702 0.989087 0.989375 0.994735 0.989181 0.989115 0.990514 0.996381 0.995979 0.990069 0.992101 0.988822 0.989785 0.990116 0.988567 0.990556 0.988856 0.993536 0.993500 0.990210 0.991442 0.991289 0.991739 0.993715 0.989949 0.990500 0.990080 0.989181 0.994552 0.994791 0.990144 0.995361 0.993856 0.990246 0.992326 0.989740 0.990819 0.995746 0.996028 0.988738 0.988664 0.989044 0.994081 0.993218 0.988669 0.989047 0.989322 0.994507 0.986852 0.989479 0.988775 0.989273 0.989749 0.988193 0.988938 0.990787 0.988083 0.988535 0.989345 0.989143 0.992028 0.988580 0.989054 0.992338 0.989348 0.986985 0.988788 0.988441 0.989744 0.989131 0.987805 0.988438 0.989348 0.988419 0.987668 0.996438 0.988630 0.989278 0.989693 0.991248 0.994688 0.992333 0.988230 0.989822 0.989707 0.989297 0.989266 0.990451 0.989382 0.989320 0.988900 0.989345 0.989288 0.990484 0.992712 0.993172 0.990401 0.989137 0.989690 0.993008 0.992188 0.992604 0.989285 0.990006 0.989630 0.990414 0.990454 0.989192 0.994169 0.988095 0.989292 0.988886 0.990042 0.990851 0.989114 0.988991 0.987539 0.988109 0.994083 0.989521 0.995084 0.994335 0.993482 0.993793 0.995000 0.989292 0.989944 0.989242 0.989932 0.993211 0.989502 0.989255 0.990119 0.989957 0.992722 0.994386 0.995207 0.994560 
0.999202 0.969454 0.999802 0.999950 0.999918 0.999079 0.999603 0.994720 0.999568 0.999808 0.998670 0.999015 0.999600 0.999924 0.999810 0.999453 0.999071 0.996766 0.997176 0.943023 0.703595 0.999035 0.999804 0.999929 0.999759 0.999790 0.998901 0.999716 0.999768 0.999676 0.999856 0.999844 0.999909 0.999774 0.999847 0.999801 0.999916 0.999028 0.998709 0.998411 0.993359 0.998824 0.999770 0.999196 0.999259 0.999815 0.999397 0.997915 0.996473 0.999521 0.999302 0.999243 0.999230 0.999336 0.998963 0.982668 0.741507 0.681312 0.990815 0.995945 0.998661 0.999850 0.999873 0.999333 0.999149 0.999896 0.999747 0.964635 0.994206 0.998760 0.999548 0.999814 0.999646 0.999811 0.999254 0.999199 0.999987 0.999417 0.999068 0.999337 0.999068 0.995836 0.999589 0.998549 0.997872 0.999910 0.998753 0.997819 0.976946 0.998383 0.997772 0.998225 0.999077 0.997384 0.999195 0.998337 0.996467 0.997819 0.995061 0.992899 0.997702 0.997026 0.987180 0.993265 0.996638 0.995266 0.995848 0.998103 0.999163 0.999418 0.999827 0.999873 0.997048 0.998615 0.998438 0.998175 0.999564 0.999723 0.999921 0.999899 0.998128 0.999782 0.997489 0.999492 0.999531 0.998462 0.999020 0.997946 0.998852 0.999796 0.998446 0.999523 0.999798 0.983274 0.990898 0.996188 0.995061 0.999687 0.999387 0.999960 0.999870 0.998583 0.999819 0.999893 0.999941 0.998757 0.983887 0.999696 0.999895 0.997179 0.987550 0.996998 0.997953 0.997164 0.998913 0.999925 0.999653 0.999394 0.998400 0.999987 0.999950 0.999972 0.999689 0.999580 0.999468 0.999655 0.999635 0.999673 0.999310 0.999186 0.999699 0.998787 0.999477 0.999790 0.999580 0.999727 0.993649 0.997041 0.993004 0.992273 0.992711 0.872076 0.963150 0.997955 0.998674 0.853508 0.956755 0.997692 0.995532 0.994495 0.997792 0.998798 0.998414 0.999608 0.999710 0.999908 0.999676 0.999627 0.999451 0.999418 0.998836 0.999061 0.999678 0.999836 0.999912 0.999935 0.999887 0.999445 0.999677 0.999767 
0.999990 0.992430 0.970993 0.961577 0.999373 0.998764 0.999862 0.999979 0.999977 0.999990 0.999977 0.999976 0.999992 0.999980 0.999977 0.999976 0.999884 0.999897 0.999645 0.999800 0.999614 0.995455 0.999891 0.999764 0.999820 0.999594 0.999646 0.999639 0.999439 0.999507 0.999274 0.998743 0.999226 0.999578 0.999858 0.999678 0.999893 0.999954 0.999633 0.999985 0.999854 0.998493 0.999939 0.999963 0.999990 0.999299 0.999943 0.999371 0.999864 0.999972 0.999938 0.999996 0.999992 0.999941 0.999969 0.999933 0.999952 0.999990 0.999951 0.999971 0.999976 0.997498 0.999887 0.999838 0.999955 0.999940 0.999903 0.999894 0.999668 0.999812 0.999861 0.999934 0.999946 0.999981 0.999904 0.999970 0.999993 0.999906 0.999929 0.999850 0.999762 0.999778 0.999834 0.999981 0.999765 0.999240 0.999505 0.999597 0.999715 0.999724 0.999799 0.999783 0.999829 0.999974 0.999943 0.999859 0.999978 0.999977 0.999970 0.999942 0.999963 0.999978 0.997715 0.999857 0.999724 0.999840 0.999860 0.999809 0.999844 0.999762 0.999997 0.999895 0.999927 0.999989 0.999982 0.999984 0.999984 0.999888 0.999733 0.999781 0.999824 0.999918 0.992668 0.999786 0.999833 0.999984 0.999892 0.999992 0.999984 0.999952 0.999905 0.999938 0.999967 0.999914 0.999875 0.999907 0.999797 0.999924 0.999955 0.999758 0.999953 0.999688 0.999744 0.999731 0.999819 0.999702 0.999635 0.999467 0.999545 0.999910 0.999958 0.999989 0.999973 0.999961 0.999968 0.999899 0.999924 0.999966 0.999961 0.999909 0.999611 0.999969 0.999901 0.999970 0.999889 0.999913 0.999997 0.999957 0.999924 0.999971 0.999905 0.999916 0.999936 0.999984 0.999927 0.999912 0.999952 0.999977 0.999967 0.999991 0.999977 0.999638 0.999738 0.999823 0.999827 0.999703 0.999689 0.999470 0.999568 0.999737 0.999948 0.999900 0.999972 0.999903 0.999813 0.999960 0.999922 0.999891 0.999945 0.999954 0.999941 0.999851 0.999718 0.999982 0.999991 0.999922 0.999915 0.999987 0.999984 0.999952 0.999731 0.999990 0.999999 0.999997 0.999991 0.999979 0.999987 0.999985 0.999975 0.999990 0.999981 0.999543 0.999925 0.999954 0.999864 0.987578 0.999757 0.999949 0.999798 0.999992 0.999969 0.999952 0.999916 0.999958 0.999886 0.999932 0.999919 0.999980 0.999954 0.999811 0.999426 
0.225991 0.746085 0.826958 0.913343 0.994001 0.841848 0.851928 0.960664 0.733667 0.806803 0.312782 0.105799 0.091378 0.278770 0.307556 0.352891 0.497367 0.616121 0.168946 0.067011 0.055101 0.031649 0.063455 0.742460 0.606336 0.074498 0.055071 0.026424 0.028905 0.019177 0.351127 0.486767 0.068811 0.112973 0.043522 0.207064 0.291386 0.935481 0.441902 0.840684 0.875441 0.867795 0.778379 0.481736 0.717552 0.886005 0.899708 0.862426 0.630843 0.828583 0.904411 0.867290 0.825824 0.884227 0.719973 0.856295 0.769550 0.387739 0.863840 0.747940 0.736530 0.834986 0.892283 0.869490 0.732692 0.805240 0.768477 0.740984 0.841537 0.651828 0.957399 0.974835 0.948255 0.656911 0.216364 0.646205 0.786232 0.884777 0.257234 0.827371 0.657876 0.936247 0.956897 0.773369 0.933821 0.978849 0.964672 0.958414 0.933610 0.964068 0.979681 0.905514 0.807466 0.834832 0.909171 0.758673 0.912702 0.707007 0.125762 0.197262 0.470572 0.373729 0.581294 0.610592 0.692366 0.793193 0.670377 0.715337 0.839364 0.939193 0.429133 0.358174 0.790186 0.882837 0.917530 0.583256 0.833230 0.358145 0.783451 0.645515 0.774738 0.923884 0.973815 0.930686 0.902332 0.490149 0.052884 0.231699 0.254896 0.049012 0.123401 0.170633 0.035207 0.102241 0.080669 0.084103 0.231741 0.276132 0.940323 0.933854 0.923710 0.901189 0.880953 0.881584 0.649455 0.328038 0.806020 0.943478 0.882928 0.924745 0.902516 0.707293 0.827458 0.699907 0.807415 0.725775 0.822016 0.948893 0.518871 0.578137 0.176667 0.158784 0.516913 0.119081 0.149857 0.586045 0.420421 0.036215 0.101867 0.019376 0.016367 0.783590 0.866630 0.898265 0.766379 0.759486 0.518005 0.280063 0.352786 0.898779 0.920318 0.671618 0.347114 0.437654 0.424014 0.488217 0.955243 0.555726 0.175625 0.059442 0.084479 0.309847 0.282497 0.380876 0.617215 0.673826 0.703715 0.522523 0.446163 0.845485 0.866494 0.468412 0.498134 0.539140 0.540596 0.559387 0.476378 0.620209 0.437116 0.862924 0.857758 0.778234 0.028343 0.024968 0.959922 0.913010 0.607251 0.038743 0.240974 
